Создан как новый массив данных;Образец 012 полученный BalashovM Дата вторник, ноября 16 2021
cm-1;A
4000,00;0,0324
3999,00;0,0324
3998,00;0,0324
3997,00;0,0324
3996,00;0,0324
3995,00;0,0324
3994,00;0,0325
3993,00;0,0325
3992,00;0,0325
3991,00;0,0325
3990,00;0,0325
3989,00;0,0325
3988,00;0,0325
3987,00;0,0325
3986,00;0,0325
3985,00;0,0325
3984,00;0,0325
3983,00;0,0325
3982,00;0,0325
3981,00;0,0325
3980,00;0,0326
3979,00;0,0326
3978,00;0,0326
3977,00;0,0326
3976,00;0,0326
3975,00;0,0326
3974,00;0,0326
3973,00;0,0326
3972,00;0,0326
3971,00;0,0326
3970,00;0,0326
3969,00;0,0327
3968,00;0,0327
3967,00;0,0326
3966,00;0,0326
3965,00;0,0326
3964,00;0,0326
3963,00;0,0327
3962,00;0,0327
3961,00;0,0327
3960,00;0,0327
3959,00;0,0327
3958,00;0,0327
3957,00;0,0327
3956,00;0,0327
3955,00;0,0327
3954,00;0,0327
3953,00;0,0327
3952,00;0,0327
3951,00;0,0328
3950,00;0,0328
3949,00;0,0328
3948,00;0,0328
3947,00;0,0328
3946,00;0,0328
3945,00;0,0328
3944,00;0,0329
3943,00;0,0329
3942,00;0,0329
3941,00;0,0329
3940,00;0,0329
3939,00;0,0329
3938,00;0,0329
3937,00;0,0329
3936,00;0,0329
3935,00;0,0329
3934,00;0,0329
3933,00;0,0329
3932,00;0,0329
3931,00;0,0329
3930,00;0,0329
3929,00;0,0329
3928,00;0,0329
3927,00;0,0329
3926,00;0,0330
3925,00;0,0330
3924,00;0,0330
3923,00;0,0330
3922,00;0,0330
3921,00;0,0330
3920,00;0,0330
3919,00;0,0330
3918,00;0,0330
3917,00;0,0330
3916,00;0,0330
3915,00;0,0330
3914,00;0,0330
3913,00;0,0330
3912,00;0,0330
3911,00;0,0331
3910,00;0,0331
3909,00;0,0331
3908,00;0,0331
3907,00;0,0331
3906,00;0,0331
3905,00;0,0331
3904,00;0,0331
3903,00;0,0331
3902,00;0,0331
3901,00;0,0331
3900,00;0,0331
3899,00;0,0331
3898,00;0,0332
3897,00;0,0332
3896,00;0,0332
3895,00;0,0332
3894,00;0,0332
3893,00;0,0332
3892,00;0,0332
3891,00;0,0332
3890,00;0,0332
3889,00;0,0332
3888,00;0,0332
3887,00;0,0333
3886,00;0,0333
3885,00;0,0333
3884,00;0,0333
3883,00;0,0333
3882,00;0,0333
3881,00;0,0333
3880,00;0,0333
3879,00;0,0333
3878,00;0,0333
3877,00;0,0333
3876,00;0,0334
3875,00;0,0334
3874,00;0,0334
3873,00;0,0334
3872,00;0,0334
3871,00;0,0334
3870,00;0,0334
3869,00;0,0334
3868,00;0,0334
3867,00;0,0334
3866,00;0,0334
3865,00;0,0334
3864,00;0,0335
3863,00;0,0335
3862,00;0,0335
3861,00;0,0335
3860,00;0,0335
3859,00;0,0335
3858,00;0,0335
3857,00;0,0335
3856,00;0,0335
3855,00;0,0335
3854,00;0,0335
3853,00;0,0335
3852,00;0,0335
3851,00;0,0335
3850,00;0,0336
3849,00;0,0336
3848,00;0,0336
3847,00;0,0336
3846,00;0,0336
3845,00;0,0336
3844,00;0,0336
3843,00;0,0336
3842,00;0,0336
3841,00;0,0336
3840,00;0,0336
3839,00;0,0336
3838,00;0,0336
3837,00;0,0336
3836,00;0,0336
3835,00;0,0336
3834,00;0,0336
3833,00;0,0336
3832,00;0,0337
3831,00;0,0337
3830,00;0,0337
3829,00;0,0337
3828,00;0,0337
3827,00;0,0337
3826,00;0,0337
3825,00;0,0337
3824,00;0,0337
3823,00;0,0337
3822,00;0,0337
3821,00;0,0337
3820,00;0,0337
3819,00;0,0337
3818,00;0,0337
3817,00;0,0337
3816,00;0,0337
3815,00;0,0337
3814,00;0,0337
3813,00;0,0337
3812,00;0,0337
3811,00;0,0337
3810,00;0,0337
3809,00;0,0337
3808,00;0,0337
3807,00;0,0338
3806,00;0,0338
3805,00;0,0338
3804,00;0,0338
3803,00;0,0338
3802,00;0,0338
3801,00;0,0338
3800,00;0,0338
3799,00;0,0338
3798,00;0,0338
3797,00;0,0338
3796,00;0,0338
3795,00;0,0338
3794,00;0,0338
3793,00;0,0338
3792,00;0,0338
3791,00;0,0338
3790,00;0,0338
3789,00;0,0338
3788,00;0,0338
3787,00;0,0338
3786,00;0,0338
3785,00;0,0338
3784,00;0,0338
3783,00;0,0338
3782,00;0,0338
3781,00;0,0338
3780,00;0,0339
3779,00;0,0339
3778,00;0,0339
3777,00;0,0339
3776,00;0,0339
3775,00;0,0339
3774,00;0,0339
3773,00;0,0339
3772,00;0,0339
3771,00;0,0339
3770,00;0,0339
3769,00;0,0339
3768,00;0,0339
3767,00;0,0339
3766,00;0,0339
3765,00;0,0339
3764,00;0,0340
3763,00;0,0340
3762,00;0,0340
3761,00;0,0340
3760,00;0,0340
3759,00;0,0340
3758,00;0,0340
3757,00;0,0340
3756,00;0,0341
3755,00;0,0341
3754,00;0,0341
3753,00;0,0341
3752,00;0,0341
3751,00;0,0341
3750,00;0,0341
3749,00;0,0341
3748,00;0,0341
3747,00;0,0341
3746,00;0,0341
3745,00;0,0341
3744,00;0,0341
3743,00;0,0341
3742,00;0,0341
3741,00;0,0341
3740,00;0,0341
3739,00;0,0341
3738,00;0,0341
3737,00;0,0341
3736,00;0,0341
3735,00;0,0341
3734,00;0,0341
3733,00;0,0341
3732,00;0,0341
3731,00;0,0341
3730,00;0,0341
3729,00;0,0341
3728,00;0,0341
3727,00;0,0341
3726,00;0,0341
3725,00;0,0341
3724,00;0,0341
3723,00;0,0341
3722,00;0,0341
3721,00;0,0341
3720,00;0,0341
3719,00;0,0341
3718,00;0,0341
3717,00;0,0341
3716,00;0,0341
3715,00;0,0341
3714,00;0,0341
3713,00;0,0341
3712,00;0,0341
3711,00;0,0341
3710,00;0,0341
3709,00;0,0341
3708,00;0,0341
3707,00;0,0341
3706,00;0,0341
3705,00;0,0341
3704,00;0,0341
3703,00;0,0342
3702,00;0,0342
3701,00;0,0342
3700,00;0,0342
3699,00;0,0342
3698,00;0,0342
3697,00;0,0342
3696,00;0,0342
3695,00;0,0342
3694,00;0,0342
3693,00;0,0342
3692,00;0,0342
3691,00;0,0342
3690,00;0,0342
3689,00;0,0342
3688,00;0,0342
3687,00;0,0343
3686,00;0,0343
3685,00;0,0343
3684,00;0,0343
3683,00;0,0343
3682,00;0,0343
3681,00;0,0343
3680,00;0,0343
3679,00;0,0343
3678,00;0,0343
3677,00;0,0343
3676,00;0,0344
3675,00;0,0344
3674,00;0,0344
3673,00;0,0343
3672,00;0,0343
3671,00;0,0343
3670,00;0,0343
3669,00;0,0343
3668,00;0,0343
3667,00;0,0343
3666,00;0,0343
3665,00;0,0343
3664,00;0,0344
3663,00;0,0344
3662,00;0,0344
3661,00;0,0344
3660,00;0,0344
3659,00;0,0344
3658,00;0,0344
3657,00;0,0344
3656,00;0,0344
3655,00;0,0344
3654,00;0,0344
3653,00;0,0344
3652,00;0,0344
3651,00;0,0344
3650,00;0,0344
3649,00;0,0344
3648,00;0,0344
3647,00;0,0344
3646,00;0,0344
3645,00;0,0344
3644,00;0,0344
3643,00;0,0344
3642,00;0,0344
3641,00;0,0344
3640,00;0,0344
3639,00;0,0344
3638,00;0,0344
3637,00;0,0344
3636,00;0,0344
3635,00;0,0344
3634,00;0,0344
3633,00;0,0344
3632,00;0,0344
3631,00;0,0344
3630,00;0,0344
3629,00;0,0344
3628,00;0,0344
3627,00;0,0344
3626,00;0,0344
3625,00;0,0344
3624,00;0,0344
3623,00;0,0344
3622,00;0,0344
3621,00;0,0344
3620,00;0,0344
3619,00;0,0345
3618,00;0,0345
3617,00;0,0345
3616,00;0,0345
3615,00;0,0345
3614,00;0,0345
3613,00;0,0345
3612,00;0,0345
3611,00;0,0345
3610,00;0,0345
3609,00;0,0345
3608,00;0,0345
3607,00;0,0345
3606,00;0,0345
3605,00;0,0345
3604,00;0,0345
3603,00;0,0345
3602,00;0,0345
3601,00;0,0345
3600,00;0,0345
3599,00;0,0345
3598,00;0,0345
3597,00;0,0346
3596,00;0,0346
3595,00;0,0346
3594,00;0,0346
3593,00;0,0346
3592,00;0,0346
3591,00;0,0346
3590,00;0,0346
3589,00;0,0346
3588,00;0,0346
3587,00;0,0346
3586,00;0,0346
3585,00;0,0346
3584,00;0,0346
3583,00;0,0347
3582,00;0,0347
3581,00;0,0347
3580,00;0,0347
3579,00;0,0347
3578,00;0,0347
3577,00;0,0347
3576,00;0,0347
3575,00;0,0347
3574,00;0,0347
3573,00;0,0347
3572,00;0,0347
3571,00;0,0348
3570,00;0,0348
3569,00;0,0348
3568,00;0,0348
3567,00;0,0348
3566,00;0,0348
3565,00;0,0348
3564,00;0,0348
3563,00;0,0348
3562,00;0,0348
3561,00;0,0349
3560,00;0,0349
3559,00;0,0349
3558,00;0,0349
3557,00;0,0349
3556,00;0,0350
3555,00;0,0350
3554,00;0,0350
3553,00;0,0350
3552,00;0,0350
3551,00;0,0350
3550,00;0,0350
3549,00;0,0350
3548,00;0,0350
3547,00;0,0350
3546,00;0,0351
3545,00;0,0351
3544,00;0,0351
3543,00;0,0351
3542,00;0,0351
3541,00;0,0351
3540,00;0,0351
3539,00;0,0351
3538,00;0,0351
3537,00;0,0352
3536,00;0,0352
3535,00;0,0352
3534,00;0,0352
3533,00;0,0352
3532,00;0,0353
3531,00;0,0353
3530,00;0,0353
3529,00;0,0353
3528,00;0,0353
3527,00;0,0353
3526,00;0,0353
3525,00;0,0353
3524,00;0,0353
3523,00;0,0353
3522,00;0,0353
3521,00;0,0353
3520,00;0,0353
3519,00;0,0353
3518,00;0,0354
3517,00;0,0354
3516,00;0,0354
3515,00;0,0354
3514,00;0,0354
3513,00;0,0354
3512,00;0,0354
3511,00;0,0354
3510,00;0,0354
3509,00;0,0354
3508,00;0,0354
3507,00;0,0354
3506,00;0,0354
3505,00;0,0354
3504,00;0,0354
3503,00;0,0355
3502,00;0,0355
3501,00;0,0355
3500,00;0,0355
3499,00;0,0355
3498,00;0,0355
3497,00;0,0355
3496,00;0,0355
3495,00;0,0355
3494,00;0,0355
3493,00;0,0355
3492,00;0,0355
3491,00;0,0355
3490,00;0,0355
3489,00;0,0355
3488,00;0,0356
3487,00;0,0356
3486,00;0,0356
3485,00;0,0356
3484,00;0,0356
3483,00;0,0356
3482,00;0,0356
3481,00;0,0356
3480,00;0,0356
3479,00;0,0356
3478,00;0,0356
3477,00;0,0357
3476,00;0,0357
3475,00;0,0357
3474,00;0,0357
3473,00;0,0357
3472,00;0,0357
3471,00;0,0357
3470,00;0,0357
3469,00;0,0357
3468,00;0,0357
3467,00;0,0357
3466,00;0,0357
3465,00;0,0358
3464,00;0,0358
3463,00;0,0358
3462,00;0,0358
3461,00;0,0359
3460,00;0,0359
3459,00;0,0359
3458,00;0,0359
3457,00;0,0359
3456,00;0,0359
3455,00;0,0359
3454,00;0,0359
3453,00;0,0360
3452,00;0,0360
3451,00;0,0360
3450,00;0,0360
3449,00;0,0360
3448,00;0,0360
3447,00;0,0360
3446,00;0,0360
3445,00;0,0360
3444,00;0,0360
3443,00;0,0361
3442,00;0,0361
3441,00;0,0361
3440,00;0,0361
3439,00;0,0360
3438,00;0,0360
3437,00;0,0360
3436,00;0,0361
3435,00;0,0361
3434,00;0,0361
3433,00;0,0361
3432,00;0,0362
3431,00;0,0362
3430,00;0,0362
3429,00;0,0362
3428,00;0,0363
3427,00;0,0363
3426,00;0,0363
3425,00;0,0363
3424,00;0,0363
3423,00;0,0363
3422,00;0,0363
3421,00;0,0364
3420,00;0,0364
3419,00;0,0364
3418,00;0,0364
3417,00;0,0364
3416,00;0,0364
3415,00;0,0365
3414,00;0,0365
3413,00;0,0365
3412,00;0,0365
3411,00;0,0365
3410,00;0,0365
3409,00;0,0365
3408,00;0,0365
3407,00;0,0365
3406,00;0,0366
3405,00;0,0366
3404,00;0,0366
3403,00;0,0366
3402,00;0,0365
3401,00;0,0365
3400,00;0,0366
3399,00;0,0366
3398,00;0,0366
3397,00;0,0366
3396,00;0,0366
3395,00;0,0366
3394,00;0,0366
3393,00;0,0366
3392,00;0,0366
3391,00;0,0366
3390,00;0,0367
3389,00;0,0367
3388,00;0,0367
3387,00;0,0367
3386,00;0,0368
3385,00;0,0368
3384,00;0,0368
3383,00;0,0368
3382,00;0,0368
3381,00;0,0368
3380,00;0,0368
3379,00;0,0368
3378,00;0,0368
3377,00;0,0368
3376,00;0,0368
3375,00;0,0368
3374,00;0,0368
3373,00;0,0368
3372,00;0,0369
3371,00;0,0369
3370,00;0,0369
3369,00;0,0369
3368,00;0,0369
3367,00;0,0369
3366,00;0,0369
3365,00;0,0369
3364,00;0,0369
3363,00;0,0369
3362,00;0,0370
3361,00;0,0370
3360,00;0,0370
3359,00;0,0370
3358,00;0,0370
3357,00;0,0370
3356,00;0,0370
3355,00;0,0370
3354,00;0,0371
3353,00;0,0371
3352,00;0,0371
3351,00;0,0371
3350,00;0,0371
3349,00;0,0371
3348,00;0,0371
3347,00;0,0371
3346,00;0,0371
3345,00;0,0371
3344,00;0,0372
3343,00;0,0372
3342,00;0,0372
3341,00;0,0372
3340,00;0,0372
3339,00;0,0372
3338,00;0,0372
3337,00;0,0373
3336,00;0,0373
3335,00;0,0373
3334,00;0,0373
3333,00;0,0373
3332,00;0,0373
3331,00;0,0373
3330,00;0,0373
3329,00;0,0373
3328,00;0,0373
3327,00;0,0373
3326,00;0,0374
3325,00;0,0374
3324,00;0,0374
3323,00;0,0374
3322,00;0,0374
3321,00;0,0374
3320,00;0,0375
3319,00;0,0375
3318,00;0,0375
3317,00;0,0375
3316,00;0,0375
3315,00;0,0375
3314,00;0,0375
3313,00;0,0375
3312,00;0,0375
3311,00;0,0376
3310,00;0,0376
3309,00;0,0376
3308,00;0,0376
3307,00;0,0376
3306,00;0,0376
3305,00;0,0376
3304,00;0,0376
3303,00;0,0376
3302,00;0,0377
3301,00;0,0377
3300,00;0,0377
3299,00;0,0377
3298,00;0,0377
3297,00;0,0377
3296,00;0,0377
3295,00;0,0377
3294,00;0,0377
3293,00;0,0377
3292,00;0,0377
3291,00;0,0377
3290,00;0,0378
3289,00;0,0378
3288,00;0,0378
3287,00;0,0378
3286,00;0,0378
3285,00;0,0378
3284,00;0,0378
3283,00;0,0378
3282,00;0,0378
3281,00;0,0378
3280,00;0,0379
3279,00;0,0379
3278,00;0,0379
3277,00;0,0379
3276,00;0,0379
3275,00;0,0379
3274,00;0,0379
3273,00;0,0379
3272,00;0,0379
3271,00;0,0379
3270,00;0,0379
3269,00;0,0379
3268,00;0,0379
3267,00;0,0380
3266,00;0,0380
3265,00;0,0380
3264,00;0,0380
3263,00;0,0380
3262,00;0,0380
3261,00;0,0380
3260,00;0,0380
3259,00;0,0380
3258,00;0,0380
3257,00;0,0380
3256,00;0,0380
3255,00;0,0381
3254,00;0,0381
3253,00;0,0381
3252,00;0,0381
3251,00;0,0381
3250,00;0,0381
3249,00;0,0381
3248,00;0,0381
3247,00;0,0381
3246,00;0,0381
3245,00;0,0381
3244,00;0,0381
3243,00;0,0381
3242,00;0,0382
3241,00;0,0382
3240,00;0,0382
3239,00;0,0382
3238,00;0,0382
3237,00;0,0382
3236,00;0,0382
3235,00;0,0382
3234,00;0,0382
3233,00;0,0382
3232,00;0,0382
3231,00;0,0382
3230,00;0,0383
3229,00;0,0383
3228,00;0,0383
3227,00;0,0383
3226,00;0,0383
3225,00;0,0383
3224,00;0,0383
3223,00;0,0383
3222,00;0,0383
3221,00;0,0383
3220,00;0,0383
3219,00;0,0383
3218,00;0,0384
3217,00;0,0384
3216,00;0,0384
3215,00;0,0384
3214,00;0,0384
3213,00;0,0384
3212,00;0,0384
3211,00;0,0384
3210,00;0,0384
3209,00;0,0384
3208,00;0,0384
3207,00;0,0384
3206,00;0,0385
3205,00;0,0385
3204,00;0,0385
3203,00;0,0385
3202,00;0,0385
3201,00;0,0385
3200,00;0,0385
3199,00;0,0385
3198,00;0,0385
3197,00;0,0385
3196,00;0,0386
3195,00;0,0386
3194,00;0,0386
3193,00;0,0386
3192,00;0,0386
3191,00;0,0386
3190,00;0,0386
3189,00;0,0386
3188,00;0,0386
3187,00;0,0386
3186,00;0,0386
3185,00;0,0387
3184,00;0,0387
3183,00;0,0387
3182,00;0,0387
3181,00;0,0387
3180,00;0,0387
3179,00;0,0387
3178,00;0,0387
3177,00;0,0388
3176,00;0,0388
3175,00;0,0388
3174,00;0,0388
3173,00;0,0388
3172,00;0,0388
3171,00;0,0388
3170,00;0,0388
3169,00;0,0388
3168,00;0,0388
3167,00;0,0388
3166,00;0,0388
3165,00;0,0388
3164,00;0,0388
3163,00;0,0388
3162,00;0,0388
3161,00;0,0389
3160,00;0,0389
3159,00;0,0389
3158,00;0,0389
3157,00;0,0389
3156,00;0,0389
3155,00;0,0389
3154,00;0,0389
3153,00;0,0389
3152,00;0,0389
3151,00;0,0389
3150,00;0,0390
3149,00;0,0390
3148,00;0,0390
3147,00;0,0390
3146,00;0,0390
3145,00;0,0390
3144,00;0,0390
3143,00;0,0390
3142,00;0,0390
3141,00;0,0390
3140,00;0,0390
3139,00;0,0390
3138,00;0,0391
3137,00;0,0391
3136,00;0,0391
3135,00;0,0391
3134,00;0,0391
3133,00;0,0391
3132,00;0,0391
3131,00;0,0391
3130,00;0,0391
3129,00;0,0391
3128,00;0,0391
3127,00;0,0391
3126,00;0,0391
3125,00;0,0392
3124,00;0,0392
3123,00;0,0392
3122,00;0,0392
3121,00;0,0392
3120,00;0,0392
3119,00;0,0392
3118,00;0,0392
3117,00;0,0392
3116,00;0,0392
3115,00;0,0392
3114,00;0,0392
3113,00;0,0392
3112,00;0,0392
3111,00;0,0392
3110,00;0,0392
3109,00;0,0392
3108,00;0,0393
3107,00;0,0393
3106,00;0,0393
3105,00;0,0393
3104,00;0,0394
3103,00;0,0394
3102,00;0,0394
3101,00;0,0394
3100,00;0,0394
3099,00;0,0394
3098,00;0,0394
3097,00;0,0394
3096,00;0,0394
3095,00;0,0394
3094,00;0,0394
3093,00;0,0394
3092,00;0,0394
3091,00;0,0394
3090,00;0,0394
3089,00;0,0394
3088,00;0,0394
3087,00;0,0394
3086,00;0,0394
3085,00;0,0394
3084,00;0,0394
3083,00;0,0394
3082,00;0,0394
3081,00;0,0394
3080,00;0,0394
3079,00;0,0394
3078,00;0,0395
3077,00;0,0395
3076,00;0,0395
3075,00;0,0396
3074,00;0,0396
3073,00;0,0396
3072,00;0,0396
3071,00;0,0396
3070,00;0,0396
3069,00;0,0396
3068,00;0,0396
3067,00;0,0396
3066,00;0,0396
3065,00;0,0397
3064,00;0,0397
3063,00;0,0397
3062,00;0,0397
3061,00;0,0397
3060,00;0,0397
3059,00;0,0397
3058,00;0,0397
3057,00;0,0397
3056,00;0,0397
3055,00;0,0397
3054,00;0,0398
3053,00;0,0398
3052,00;0,0398
3051,00;0,0398
3050,00;0,0398
3049,00;0,0398
3048,00;0,0398
3047,00;0,0398
3046,00;0,0398
3045,00;0,0399
3044,00;0,0399
3043,00;0,0399
3042,00;0,0399
3041,00;0,0399
3040,00;0,0399
3039,00;0,0400
3038,00;0,0400
3037,00;0,0400
3036,00;0,0400
3035,00;0,0400
3034,00;0,0400
3033,00;0,0400
3032,00;0,0401
3031,00;0,0401
3030,00;0,0401
3029,00;0,0402
3028,00;0,0402
3027,00;0,0402
3026,00;0,0402
3025,00;0,0402
3024,00;0,0402
3023,00;0,0403
3022,00;0,0403
3021,00;0,0403
3020,00;0,0403
3019,00;0,0403
3018,00;0,0403
3017,00;0,0403
3016,00;0,0403
3015,00;0,0403
3014,00;0,0404
3013,00;0,0404
3012,00;0,0405
3011,00;0,0405
3010,00;0,0406
3009,00;0,0406
3008,00;0,0407
3007,00;0,0407
3006,00;0,0407
3005,00;0,0407
3004,00;0,0407
3003,00;0,0408
3002,00;0,0408
3001,00;0,0408
3000,00;0,0408
2999,00;0,0408
2998,00;0,0408
2997,00;0,0408
2996,00;0,0409
2995,00;0,0409
2994,00;0,0409
2993,00;0,0410
2992,00;0,0410
2991,00;0,0410
2990,00;0,0411
2989,00;0,0411
2988,00;0,0411
2987,00;0,0411
2986,00;0,0410
2985,00;0,0410
2984,00;0,0410
2983,00;0,0410
2982,00;0,0409
2981,00;0,0409
2980,00;0,0409
2979,00;0,0409
2978,00;0,0409
2977,00;0,0409
2976,00;0,0409
2975,00;0,0409
2974,00;0,0409
2973,00;0,0409
2972,00;0,0409
2971,00;0,0409
2970,00;0,0408
2969,00;0,0408
2968,00;0,0407
2967,00;0,0407
2966,00;0,0406
2965,00;0,0406
2964,00;0,0405
2963,00;0,0405
2962,00;0,0405
2961,00;0,0405
2960,00;0,0405
2959,00;0,0405
2958,00;0,0404
2957,00;0,0404
2956,00;0,0404
2955,00;0,0404
2954,00;0,0404
2953,00;0,0404
2952,00;0,0403
2951,00;0,0404
2950,00;0,0404
2949,00;0,0404
2948,00;0,0404
2947,00;0,0404
2946,00;0,0404
2945,00;0,0403
2944,00;0,0403
2943,00;0,0403
2942,00;0,0403
2941,00;0,0403
2940,00;0,0403
2939,00;0,0403
2938,00;0,0402
2937,00;0,0401
2936,00;0,0401
2935,00;0,0400
2934,00;0,0400
2933,00;0,0400
2932,00;0,0400
2931,00;0,0400
2930,00;0,0400
2929,00;0,0399
2928,00;0,0399
2927,00;0,0399
2926,00;0,0399
2925,00;0,0400
2924,00;0,0400
2923,00;0,0401
2922,00;0,0402
2921,00;0,0403
2920,00;0,0404
2919,00;0,0404
2918,00;0,0405
2917,00;0,0405
2916,00;0,0406
2915,00;0,0406
2914,00;0,0407
2913,00;0,0408
2912,00;0,0408
2911,00;0,0409
2910,00;0,0410
2909,00;0,0411
2908,00;0,0411
2907,00;0,0412
2906,00;0,0412
2905,00;0,0412
2904,00;0,0412
2903,00;0,0413
2902,00;0,0413
2901,00;0,0414
2900,00;0,0414
2899,00;0,0414
2898,00;0,0414
2897,00;0,0414
2896,00;0,0414
2895,00;0,0414
2894,00;0,0415
2893,00;0,0415
2892,00;0,0415
2891,00;0,0415
2890,00;0,0415
2889,00;0,0415
2888,00;0,0415
2887,00;0,0415
2886,00;0,0415
2885,00;0,0415
2884,00;0,0415
2883,00;0,0415
2882,00;0,0416
2881,00;0,0416
2880,00;0,0416
2879,00;0,0415
2878,00;0,0415
2877,00;0,0415
2876,00;0,0414
2875,00;0,0414
2874,00;0,0414
2873,00;0,0414
2872,00;0,0414
2871,00;0,0414
2870,00;0,0414
2869,00;0,0414
2868,00;0,0414
2867,00;0,0414
2866,00;0,0413
2865,00;0,0413
2864,00;0,0412
2863,00;0,0412
2862,00;0,0411
2861,00;0,0411
2860,00;0,0411
2859,00;0,0411
2858,00;0,0411
2857,00;0,0410
2856,00;0,0411
2855,00;0,0411
2854,00;0,0411
2853,00;0,0411
2852,00;0,0412
2851,00;0,0412
2850,00;0,0413
2849,00;0,0414
2848,00;0,0414
2847,00;0,0415
2846,00;0,0415
2845,00;0,0416
2844,00;0,0416
2843,00;0,0416
2842,00;0,0416
2841,00;0,0416
2840,00;0,0416
2839,00;0,0416
2838,00;0,0416
2837,00;0,0417
2836,00;0,0417
2835,00;0,0417
2834,00;0,0418
2833,00;0,0418
2832,00;0,0418
2831,00;0,0419
2830,00;0,0419
2829,00;0,0419
2828,00;0,0419
2827,00;0,0419
2826,00;0,0419
2825,00;0,0419
2824,00;0,0419
2823,00;0,0419
2822,00;0,0419
2821,00;0,0419
2820,00;0,0419
2819,00;0,0419
2818,00;0,0419
2817,00;0,0420
2816,00;0,0419
2815,00;0,0419
2814,00;0,0419
2813,00;0,0419
2812,00;0,0420
2811,00;0,0420
2810,00;0,0420
2809,00;0,0420
2808,00;0,0420
2807,00;0,0420
2806,00;0,0420
2805,00;0,0420
2804,00;0,0420
2803,00;0,0420
2802,00;0,0420
2801,00;0,0420
2800,00;0,0420
2799,00;0,0420
2798,00;0,0420
2797,00;0,0421
2796,00;0,0421
2795,00;0,0421
2794,00;0,0421
2793,00;0,0421
2792,00;0,0421
2791,00;0,0421
2790,00;0,0421
2789,00;0,0421
2788,00;0,0421
2787,00;0,0421
2786,00;0,0421
2785,00;0,0422
2784,00;0,0422
2783,00;0,0422
2782,00;0,0422
2781,00;0,0422
2780,00;0,0422
2779,00;0,0422
2778,00;0,0422
2777,00;0,0422
2776,00;0,0422
2775,00;0,0422
2774,00;0,0422
2773,00;0,0422
2772,00;0,0422
2771,00;0,0423
2770,00;0,0423
2769,00;0,0423
2768,00;0,0423
2767,00;0,0423
2766,00;0,0423
2765,00;0,0423
2764,00;0,0423
2763,00;0,0423
2762,00;0,0423
2761,00;0,0423
2760,00;0,0423
2759,00;0,0423
2758,00;0,0423
2757,00;0,0424
2756,00;0,0424
2755,00;0,0424
2754,00;0,0424
2753,00;0,0424
2752,00;0,0424
2751,00;0,0424
2750,00;0,0424
2749,00;0,0424
2748,00;0,0424
2747,00;0,0424
2746,00;0,0424
2745,00;0,0424
2744,00;0,0424
2743,00;0,0425
2742,00;0,0425
2741,00;0,0425
2740,00;0,0425
2739,00;0,0425
2738,00;0,0425
2737,00;0,0425
2736,00;0,0425
2735,00;0,0425
2734,00;0,0425
2733,00;0,0425
2732,00;0,0425
2731,00;0,0425
2730,00;0,0425
2729,00;0,0425
2728,00;0,0425
2727,00;0,0425
2726,00;0,0425
2725,00;0,0426
2724,00;0,0426
2723,00;0,0426
2722,00;0,0426
2721,00;0,0426
2720,00;0,0426
2719,00;0,0426
2718,00;0,0426
2717,00;0,0426
2716,00;0,0426
2715,00;0,0426
2714,00;0,0426
2713,00;0,0426
2712,00;0,0426
2711,00;0,0426
2710,00;0,0427
2709,00;0,0427
2708,00;0,0427
2707,00;0,0427
2706,00;0,0427
2705,00;0,0427
2704,00;0,0427
2703,00;0,0427
2702,00;0,0427
2701,00;0,0427
2700,00;0,0427
2699,00;0,0427
2698,00;0,0427
2697,00;0,0427
2696,00;0,0428
2695,00;0,0428
2694,00;0,0428
2693,00;0,0428
2692,00;0,0428
2691,00;0,0428
2690,00;0,0428
2689,00;0,0428
2688,00;0,0428
2687,00;0,0428
2686,00;0,0428
2685,00;0,0428
2684,00;0,0428
2683,00;0,0429
2682,00;0,0429
2681,00;0,0429
2680,00;0,0429
2679,00;0,0429
2678,00;0,0429
2677,00;0,0429
2676,00;0,0429
2675,00;0,0429
2674,00;0,0429
2673,00;0,0430
2672,00;0,0430
2671,00;0,0430
2670,00;0,0430
2669,00;0,0430
2668,00;0,0431
2667,00;0,0431
2666,00;0,0431
2665,00;0,0431
2664,00;0,0432
2663,00;0,0432
2662,00;0,0433
2661,00;0,0433
2660,00;0,0433
2659,00;0,0433
2658,00;0,0433
2657,00;0,0434
2656,00;0,0434
2655,00;0,0434
2654,00;0,0434
2653,00;0,0434
2652,00;0,0434
2651,00;0,0434
2650,00;0,0434
2649,00;0,0434
2648,00;0,0434
2647,00;0,0434
2646,00;0,0434
2645,00;0,0434
2644,00;0,0434
2643,00;0,0434
2642,00;0,0434
2641,00;0,0434
2640,00;0,0434
2639,00;0,0434
2638,00;0,0434
2637,00;0,0433
2636,00;0,0433
2635,00;0,0433
2634,00;0,0433
2633,00;0,0433
2632,00;0,0433
2631,00;0,0433
2630,00;0,0432
2629,00;0,0432
2628,00;0,0432
2627,00;0,0432
2626,00;0,0432
2625,00;0,0432
2624,00;0,0432
2623,00;0,0432
2622,00;0,0432
2621,00;0,0432
2620,00;0,0432
2619,00;0,0432
2618,00;0,0432
2617,00;0,0432
2616,00;0,0432
2615,00;0,0432
2614,00;0,0432
2613,00;0,0432
2612,00;0,0432
2611,00;0,0432
2610,00;0,0431
2609,00;0,0431
2608,00;0,0431
2607,00;0,0431
2606,00;0,0431
2605,00;0,0431
2604,00;0,0431
2603,00;0,0431
2602,00;0,0431
2601,00;0,0431
2600,00;0,0431
2599,00;0,0431
2598,00;0,0431
2597,00;0,0431
2596,00;0,0431
2595,00;0,0431
2594,00;0,0431
2593,00;0,0430
2592,00;0,0430
2591,00;0,0430
2590,00;0,0430
2589,00;0,0430
2588,00;0,0430
2587,00;0,0430
2586,00;0,0430
2585,00;0,0430
2584,00;0,0430
2583,00;0,0430
2582,00;0,0430
2581,00;0,0430
2580,00;0,0430
2579,00;0,0430
2578,00;0,0430
2577,00;0,0430
2576,00;0,0430
2575,00;0,0430
2574,00;0,0430
2573,00;0,0430
2572,00;0,0430
2571,00;0,0430
2570,00;0,0430
2569,00;0,0430
2568,00;0,0430
2567,00;0,0430
2566,00;0,0430
2565,00;0,0430
2564,00;0,0430
2563,00;0,0430
2562,00;0,0430
2561,00;0,0430
2560,00;0,0430
2559,00;0,0430
2558,00;0,0430
2557,00;0,0429
2556,00;0,0430
2555,00;0,0430
2554,00;0,0430
2553,00;0,0430
2552,00;0,0430
2551,00;0,0430
2550,00;0,0430
2549,00;0,0430
2548,00;0,0430
2547,00;0,0429
2546,00;0,0429
2545,00;0,0430
2544,00;0,0430
2543,00;0,0430
2542,00;0,0430
2541,00;0,0430
2540,00;0,0430
2539,00;0,0430
2538,00;0,0430
2537,00;0,0430
2536,00;0,0430
2535,00;0,0430
2534,00;0,0430
2533,00;0,0430
2532,00;0,0430
2531,00;0,0430
2530,00;0,0430
2529,00;0,0430
2528,00;0,0430
2527,00;0,0430
2526,00;0,0430
2525,00;0,0430
2524,00;0,0430
2523,00;0,0430
2522,00;0,0430
2521,00;0,0430
2520,00;0,0431
2519,00;0,0431
2518,00;0,0431
2517,00;0,0431
2516,00;0,0431
2515,00;0,0431
2514,00;0,0431
2513,00;0,0431
2512,00;0,0431
2511,00;0,0431
2510,00;0,0431
2509,00;0,0431
2508,00;0,0431
2507,00;0,0431
2506,00;0,0431
2505,00;0,0432
2504,00;0,0432
2503,00;0,0432
2502,00;0,0432
2501,00;0,0432
2500,00;0,0432
2499,00;0,0432
2498,00;0,0432
2497,00;0,0432
2496,00;0,0432
2495,00;0,0432
2494,00;0,0432
2493,00;0,0432
2492,00;0,0432
2491,00;0,0432
2490,00;0,0432
2489,00;0,0432
2488,00;0,0432
2487,00;0,0432
2486,00;0,0432
2485,00;0,0433
2484,00;0,0433
2483,00;0,0433
2482,00;0,0433
2481,00;0,0433
2480,00;0,0433
2479,00;0,0433
2478,00;0,0433
2477,00;0,0433
2476,00;0,0433
2475,00;0,0433
2474,00;0,0433
2473,00;0,0433
2472,00;0,0434
2471,00;0,0434
2470,00;0,0434
2469,00;0,0434
2468,00;0,0434
2467,00;0,0434
2466,00;0,0434
2465,00;0,0434
2464,00;0,0434
2463,00;0,0434
2462,00;0,0435
2461,00;0,0435
2460,00;0,0435
2459,00;0,0435
2458,00;0,0435
2457,00;0,0435
2456,00;0,0435
2455,00;0,0435
2454,00;0,0435
2453,00;0,0435
2452,00;0,0436
2451,00;0,0436
2450,00;0,0436
2449,00;0,0436
2448,00;0,0435
2447,00;0,0435
2446,00;0,0436
2445,00;0,0436
2444,00;0,0436
2443,00;0,0436
2442,00;0,0436
2441,00;0,0436
2440,00;0,0436
2439,00;0,0436
2438,00;0,0436
2437,00;0,0436
2436,00;0,0436
2435,00;0,0435
2434,00;0,0435
2433,00;0,0435
2432,00;0,0435
2431,00;0,0435
2430,00;0,0435
2429,00;0,0435
2428,00;0,0435
2427,00;0,0435
2426,00;0,0435
2425,00;0,0435
2424,00;0,0435
2423,00;0,0435
2422,00;0,0436
2421,00;0,0436
2420,00;0,0436
2419,00;0,0436
2418,00;0,0436
2417,00;0,0436
2416,00;0,0437
2415,00;0,0437
2414,00;0,0437
2413,00;0,0437
2412,00;0,0437
2411,00;0,0437
2410,00;0,0437
2409,00;0,0437
2408,00;0,0437
2407,00;0,0436
2406,00;0,0436
2405,00;0,0436
2404,00;0,0436
2403,00;0,0436
2402,00;0,0436
2401,00;0,0436
2400,00;0,0436
2399,00;0,0436
2398,00;0,0436
2397,00;0,0436
2396,00;0,0436
2395,00;0,0437
2394,00;0,0437
2393,00;0,0437
2392,00;0,0437
2391,00;0,0437
2390,00;0,0437
2389,00;0,0438
2388,00;0,0438
2387,00;0,0438
2386,00;0,0438
2385,00;0,0438
2384,00;0,0438
2383,00;0,0438
2382,00;0,0438
2381,00;0,0438
2380,00;0,0438
2379,00;0,0438
2378,00;0,0438
2377,00;0,0438
2376,00;0,0438
2375,00;0,0438
2374,00;0,0439
2373,00;0,0439
2372,00;0,0439
2371,00;0,0439
2370,00;0,0440
2369,00;0,0440
2368,00;0,0440
2367,00;0,0440
2366,00;0,0440
2365,00;0,0440
2364,00;0,0441
2363,00;0,0441
2362,00;0,0442
2361,00;0,0442
2360,00;0,0442
2359,00;0,0443
2358,00;0,0443
2357,00;0,0443
2356,00;0,0443
2355,00;0,0444
2354,00;0,0444
2353,00;0,0444
2352,00;0,0445
2351,00;0,0445
2350,00;0,0445
2349,00;0,0445
2348,00;0,0446
2347,00;0,0446
2346,00;0,0446
2345,00;0,0447
2344,00;0,0447
2343,00;0,0448
2342,00;0,0448
2341,00;0,0449
2340,00;0,0449
2339,00;0,0449
2338,00;0,0449
2337,00;0,0449
2336,00;0,0450
2335,00;0,0451
2334,00;0,0451
2333,00;0,0451
2332,00;0,0452
2331,00;0,0452
2330,00;0,0452
2329,00;0,0452
2328,00;0,0452
2327,00;0,0453
2326,00;0,0455
2325,00;0,0457
2324,00;0,0458
2323,00;0,0458
2322,00;0,0458
2321,00;0,0457
2320,00;0,0456
2319,00;0,0456
2318,00;0,0456
2317,00;0,0456
2316,00;0,0456
2315,00;0,0456
2314,00;0,0455
2313,00;0,0455
2312,00;0,0455
2311,00;0,0455
2310,00;0,0455
2309,00;0,0455
2308,00;0,0455
2307,00;0,0455
2306,00;0,0455
2305,00;0,0455
2304,00;0,0455
2303,00;0,0455
2302,00;0,0455
2301,00;0,0455
2300,00;0,0455
2299,00;0,0455
2298,00;0,0455
2297,00;0,0456
2296,00;0,0456
2295,00;0,0456
2294,00;0,0456
2293,00;0,0456
2292,00;0,0457
2291,00;0,0457
2290,00;0,0457
2289,00;0,0457
2288,00;0,0457
2287,00;0,0458
2286,00;0,0458
2285,00;0,0457
2284,00;0,0457
2283,00;0,0456
2282,00;0,0456
2281,00;0,0455
2280,00;0,0456
2279,00;0,0456
2278,00;0,0456
2277,00;0,0455
2276,00;0,0455
2275,00;0,0455
2274,00;0,0454
2273,00;0,0453
2272,00;0,0453
2271,00;0,0453
2270,00;0,0453
2269,00;0,0453
2268,00;0,0453
2267,00;0,0453
2266,00;0,0453
2265,00;0,0453
2264,00;0,0453
2263,00;0,0453
2262,00;0,0453
2261,00;0,0453
2260,00;0,0453
2259,00;0,0453
2258,00;0,0454
2257,00;0,0454
2256,00;0,0453
2255,00;0,0453
2254,00;0,0453
2253,00;0,0453
2252,00;0,0453
2251,00;0,0453
2250,00;0,0453
2249,00;0,0453
2248,00;0,0453
2247,00;0,0453
2246,00;0,0453
2245,00;0,0453
2244,00;0,0453
2243,00;0,0453
2242,00;0,0453
2241,00;0,0453
2240,00;0,0452
2239,00;0,0452
2238,00;0,0452
2237,00;0,0453
2236,00;0,0453
2235,00;0,0453
2234,00;0,0453
2233,00;0,0453
2232,00;0,0453
2231,00;0,0452
2230,00;0,0452
2229,00;0,0452
2228,00;0,0453
2227,00;0,0453
2226,00;0,0453
2225,00;0,0453
2224,00;0,0453
2223,00;0,0452
2222,00;0,0452
2221,00;0,0452
2220,00;0,0452
2219,00;0,0452
2218,00;0,0452
2217,00;0,0452
2216,00;0,0452
2215,00;0,0452
2214,00;0,0452
2213,00;0,0452
2212,00;0,0452
2211,00;0,0452
2210,00;0,0452
2209,00;0,0452
2208,00;0,0452
2207,00;0,0452
2206,00;0,0452
2205,00;0,0452
2204,00;0,0452
2203,00;0,0452
2202,00;0,0451
2201,00;0,0451
2200,00;0,0452
2199,00;0,0452
2198,00;0,0453
2197,00;0,0454
2196,00;0,0454
2195,00;0,0455
2194,00;0,0455
2193,00;0,0456
2192,00;0,0456
2191,00;0,0456
2190,00;0,0456
2189,00;0,0455
2188,00;0,0454
2187,00;0,0454
2186,00;0,0454
2185,00;0,0454
2184,00;0,0454
2183,00;0,0454
2182,00;0,0453
2181,00;0,0452
2180,00;0,0453
2179,00;0,0453
2178,00;0,0452
2177,00;0,0450
2176,00;0,0449
2175,00;0,0449
2174,00;0,0450
2173,00;0,0452
2172,00;0,0452
2171,00;0,0452
2170,00;0,0453
2169,00;0,0453
2168,00;0,0455
2167,00;0,0456
2166,00;0,0456
2165,00;0,0456
2164,00;0,0457
2163,00;0,0458
2162,00;0,0458
2161,00;0,0457
2160,00;0,0451
2159,00;0,0445
2158,00;0,0439
2157,00;0,0436
2156,00;0,0435
2155,00;0,0436
2154,00;0,0436
2153,00;0,0437
2152,00;0,0438
2151,00;0,0440
2150,00;0,0441
2149,00;0,0442
2148,00;0,0442
2147,00;0,0442
2146,00;0,0442
2145,00;0,0442
2144,00;0,0441
2143,00;0,0441
2142,00;0,0442
2141,00;0,0442
2140,00;0,0442
2139,00;0,0442
2138,00;0,0441
2137,00;0,0441
2136,00;0,0440
2135,00;0,0440
2134,00;0,0439
2133,00;0,0439
2132,00;0,0440
2131,00;0,0440
2130,00;0,0441
2129,00;0,0442
2128,00;0,0443
2127,00;0,0444
2126,00;0,0445
2125,00;0,0446
2124,00;0,0447
2123,00;0,0447
2122,00;0,0448
2121,00;0,0448
2120,00;0,0450
2119,00;0,0451
2118,00;0,0452
2117,00;0,0452
2116,00;0,0453
2115,00;0,0453
2114,00;0,0454
2113,00;0,0454
2112,00;0,0455
2111,00;0,0455
2110,00;0,0454
2109,00;0,0454
2108,00;0,0454
2107,00;0,0454
2106,00;0,0455
2105,00;0,0456
2104,00;0,0457
2103,00;0,0457
2102,00;0,0456
2101,00;0,0456
2100,00;0,0456
2099,00;0,0456
2098,00;0,0456
2097,00;0,0456
2096,00;0,0456
2095,00;0,0455
2094,00;0,0455
2093,00;0,0455
2092,00;0,0456
2091,00;0,0456
2090,00;0,0457
2089,00;0,0458
2088,00;0,0458
2087,00;0,0458
2086,00;0,0458
2085,00;0,0458
2084,00;0,0458
2083,00;0,0458
2082,00;0,0458
2081,00;0,0459
2080,00;0,0459
2079,00;0,0459
2078,00;0,0459
2077,00;0,0459
2076,00;0,0459
2075,00;0,0459
2074,00;0,0460
2073,00;0,0460
2072,00;0,0460
2071,00;0,0460
2070,00;0,0460
2069,00;0,0460
2068,00;0,0460
2067,00;0,0460
2066,00;0,0461
2065,00;0,0461
2064,00;0,0461
2063,00;0,0462
2062,00;0,0462
2061,00;0,0462
2060,00;0,0461
2059,00;0,0461
2058,00;0,0461
2057,00;0,0462
2056,00;0,0462
2055,00;0,0462
2054,00;0,0462
2053,00;0,0462
2052,00;0,0463
2051,00;0,0464
2050,00;0,0464
2049,00;0,0464
2048,00;0,0463
2047,00;0,0462
2046,00;0,0461
2045,00;0,0461
2044,00;0,0461
2043,00;0,0461
2042,00;0,0462
2041,00;0,0462
2040,00;0,0463
2039,00;0,0464
2038,00;0,0464
2037,00;0,0464
2036,00;0,0462
2035,00;0,0460
2034,00;0,0458
2033,00;0,0457
2032,00;0,0457
2031,00;0,0457
2030,00;0,0457
2029,00;0,0457
2028,00;0,0457
2027,00;0,0457
2026,00;0,0458
2025,00;0,0458
2024,00;0,0459
2023,00;0,0459
2022,00;0,0458
2021,00;0,0458
2020,00;0,0457
2019,00;0,0456
2018,00;0,0456
2017,00;0,0456
2016,00;0,0456
2015,00;0,0457
2014,00;0,0458
2013,00;0,0457
2012,00;0,0457
2011,00;0,0455
2010,00;0,0455
2009,00;0,0454
2008,00;0,0454
2007,00;0,0454
2006,00;0,0453
2005,00;0,0453
2004,00;0,0453
2003,00;0,0453
2002,00;0,0454
2001,00;0,0454
2000,00;0,0455
1999,00;0,0456
1998,00;0,0458
1997,00;0,0459
1996,00;0,0460
1995,00;0,0460
1994,00;0,0459
1993,00;0,0458
1992,00;0,0458
1991,00;0,0458
1990,00;0,0458
1989,00;0,0459
1988,00;0,0460
1987,00;0,0461
1986,00;0,0462
1985,00;0,0462
1984,00;0,0462
1983,00;0,0463
1982,00;0,0463
1981,00;0,0464
1980,00;0,0464
1979,00;0,0462
1978,00;0,0459
1977,00;0,0456
1976,00;0,0454
1975,00;0,0453
1974,00;0,0454
1973,00;0,0454
1972,00;0,0456
1971,00;0,0457
1970,00;0,0457
1969,00;0,0457
1968,00;0,0456
1967,00;0,0455
1966,00;0,0455
1965,00;0,0456
1964,00;0,0456
1963,00;0,0456
1962,00;0,0456
1961,00;0,0456
1960,00;0,0455
1959,00;0,0456
1958,00;0,0456
1957,00;0,0456
1956,00;0,0456
1955,00;0,0456
1954,00;0,0455
1953,00;0,0455
1952,00;0,0454
1951,00;0,0454
1950,00;0,0455
1949,00;0,0455
1948,00;0,0456
1947,00;0,0456
1946,00;0,0456
1945,00;0,0456
1944,00;0,0456
1943,00;0,0456
1942,00;0,0456
1941,00;0,0456
1940,00;0,0456
1939,00;0,0457
1938,00;0,0457
1937,00;0,0457
1936,00;0,0457
1935,00;0,0457
1934,00;0,0457
1933,00;0,0457
1932,00;0,0458
1931,00;0,0458
1930,00;0,0458
1929,00;0,0459
1928,00;0,0459
1927,00;0,0459
1926,00;0,0460
1925,00;0,0460
1924,00;0,0459
1923,00;0,0460
1922,00;0,0460
1921,00;0,0460
1920,00;0,0460
1919,00;0,0461
1918,00;0,0461
1917,00;0,0461
1916,00;0,0461
1915,00;0,0461
1914,00;0,0461
1913,00;0,0461
1912,00;0,0461
1911,00;0,0461
1910,00;0,0461
1909,00;0,0461
1908,00;0,0461
1907,00;0,0462
1906,00;0,0462
1905,00;0,0463
1904,00;0,0463
1903,00;0,0463
1902,00;0,0463
1901,00;0,0463
1900,00;0,0463
1899,00;0,0463
1898,00;0,0463
1897,00;0,0463
1896,00;0,0463
1895,00;0,0463
1894,00;0,0463
1893,00;0,0463
1892,00;0,0463
1891,00;0,0463
1890,00;0,0463
1889,00;0,0463
1888,00;0,0463
1887,00;0,0463
1886,00;0,0463
1885,00;0,0463
1884,00;0,0463
1883,00;0,0464
1882,00;0,0464
1881,00;0,0464
1880,00;0,0464
1879,00;0,0464
1878,00;0,0464
1877,00;0,0464
1876,00;0,0465
1875,00;0,0465
1874,00;0,0465
1873,00;0,0465
1872,00;0,0465
1871,00;0,0466
1870,00;0,0466
1869,00;0,0467
1868,00;0,0467
1867,00;0,0467
1866,00;0,0467
1865,00;0,0467
1864,00;0,0466
1863,00;0,0465
1862,00;0,0465
1861,00;0,0464
1860,00;0,0464
1859,00;0,0465
1858,00;0,0465
1857,00;0,0465
1856,00;0,0465
1855,00;0,0465
1854,00;0,0465
1853,00;0,0465
1852,00;0,0465
1851,00;0,0465
1850,00;0,0465
1849,00;0,0465
1848,00;0,0465
1847,00;0,0465
1846,00;0,0465
1845,00;0,0465
1844,00;0,0466
1843,00;0,0466
1842,00;0,0466
1841,00;0,0467
1840,00;0,0467
1839,00;0,0467
1838,00;0,0466
1837,00;0,0466
1836,00;0,0466
1835,00;0,0466
1834,00;0,0466
1833,00;0,0466
1832,00;0,0466
1831,00;0,0467
1830,00;0,0467
1829,00;0,0467
1828,00;0,0466
1827,00;0,0466
1826,00;0,0466
1825,00;0,0466
1824,00;0,0466
1823,00;0,0467
1822,00;0,0467
1821,00;0,0467
1820,00;0,0466
1819,00;0,0466
1818,00;0,0466
1817,00;0,0466
1816,00;0,0466
1815,00;0,0466
1814,00;0,0466
1813,00;0,0467
1812,00;0,0467
1811,00;0,0467
1810,00;0,0468
1809,00;0,0468
1808,00;0,0468
1807,00;0,0468
1806,00;0,0468
1805,00;0,0468
1804,00;0,0469
1803,00;0,0469
1802,00;0,0469
1801,00;0,0470
1800,00;0,0470
1799,00;0,0470
1798,00;0,0470
1797,00;0,0470
1796,00;0,0470
1795,00;0,0470
1794,00;0,0470
1793,00;0,0470
1792,00;0,0471
1791,00;0,0471
1790,00;0,0471
1789,00;0,0471
1788,00;0,0471
1787,00;0,0471
1786,00;0,0471
1785,00;0,0471
1784,00;0,0471
1783,00;0,0472
1782,00;0,0472
1781,00;0,0472
1780,00;0,0472
1779,00;0,0472
1778,00;0,0472
1777,00;0,0472
1776,00;0,0472
1775,00;0,0471
1774,00;0,0472
1773,00;0,0472
1772,00;0,0473
1771,00;0,0474
1770,00;0,0474
1769,00;0,0474
1768,00;0,0474
1767,00;0,0474
1766,00;0,0473
1765,00;0,0473
1764,00;0,0473
1763,00;0,0474
1762,00;0,0473
1761,00;0,0473
1760,00;0,0473
1759,00;0,0473
1758,00;0,0473
1757,00;0,0472
1756,00;0,0472
1755,00;0,0471
1754,00;0,0471
1753,00;0,0471
1752,00;0,0471
1751,00;0,0471
1750,00;0,0471
1749,00;0,0471
1748,00;0,0470
1747,00;0,0469
1746,00;0,0468
1745,00;0,0468
1744,00;0,0468
1743,00;0,0467
1742,00;0,0467
1741,00;0,0466
1740,00;0,0466
1739,00;0,0466
1738,00;0,0466
1737,00;0,0467
1736,00;0,0467
1735,00;0,0467
1734,00;0,0468
1733,00;0,0469
1732,00;0,0470
1731,00;0,0471
1730,00;0,0471
1729,00;0,0472
1728,00;0,0473
1727,00;0,0473
1726,00;0,0474
1725,00;0,0475
1724,00;0,0475
1723,00;0,0476
1722,00;0,0477
1721,00;0,0478
1720,00;0,0479
1719,00;0,0480
1718,00;0,0481
1717,00;0,0483
1716,00;0,0484
1715,00;0,0484
1714,00;0,0485
1713,00;0,0485
1712,00;0,0485
1711,00;0,0486
1710,00;0,0486
1709,00;0,0486
1708,00;0,0487
1707,00;0,0488
1706,00;0,0488
1705,00;0,0489
1704,00;0,0490
1703,00;0,0490
1702,00;0,0491
1701,00;0,0491
1700,00;0,0491
1699,00;0,0491
1698,00;0,0492
1697,00;0,0491
1696,00;0,0491
1695,00;0,0492
1694,00;0,0492
1693,00;0,0492
1692,00;0,0492
1691,00;0,0492
1690,00;0,0493
1689,00;0,0493
1688,00;0,0493
1687,00;0,0493
1686,00;0,0493
1685,00;0,0493
1684,00;0,0493
1683,00;0,0493
1682,00;0,0494
1681,00;0,0494
1680,00;0,0494
1679,00;0,0493
1678,00;0,0493
1677,00;0,0493
1676,00;0,0493
1675,00;0,0493
1674,00;0,0494
1673,00;0,0494
1672,00;0,0494
1671,00;0,0494
1670,00;0,0494
1669,00;0,0494
1668,00;0,0494
1667,00;0,0494
1666,00;0,0494
1665,00;0,0494
1664,00;0,0494
1663,00;0,0494
1662,00;0,0495
1661,00;0,0495
1660,00;0,0496
1659,00;0,0496
1658,00;0,0496
1657,00;0,0496
1656,00;0,0497
1655,00;0,0497
1654,00;0,0497
1653,00;0,0497
1652,00;0,0498
1651,00;0,0499
1650,00;0,0499
1649,00;0,0499
1648,00;0,0499
1647,00;0,0500
1646,00;0,0500
1645,00;0,0501
1644,00;0,0501
1643,00;0,0501
1642,00;0,0502
1641,00;0,0502
1640,00;0,0502
1639,00;0,0503
1638,00;0,0503
1637,00;0,0503
1636,00;0,0504
1635,00;0,0504
1634,00;0,0505
1633,00;0,0505
1632,00;0,0506
1631,00;0,0506
1630,00;0,0506
1629,00;0,0507
1628,00;0,0507
1627,00;0,0508
1626,00;0,0508
1625,00;0,0509
1624,00;0,0509
1623,00;0,0510
1622,00;0,0511
1621,00;0,0511
1620,00;0,0511
1619,00;0,0512
1618,00;0,0512
1617,00;0,0513
1616,00;0,0513
1615,00;0,0514
1614,00;0,0515
1613,00;0,0515
1612,00;0,0515
1611,00;0,0516
1610,00;0,0516
1609,00;0,0517
1608,00;0,0518
1607,00;0,0518
1606,00;0,0519
1605,00;0,0519
1604,00;0,0520
1603,00;0,0520
1602,00;0,0521
1601,00;0,0521
1600,00;0,0522
1599,00;0,0522
1598,00;0,0523
1597,00;0,0524
1596,00;0,0524
1595,00;0,0525
1594,00;0,0525
1593,00;0,0525
1592,00;0,0526
1591,00;0,0526
1590,00;0,0527
1589,00;0,0527
1588,00;0,0528
1587,00;0,0528
1586,00;0,0528
1585,00;0,0529
1584,00;0,0529
1583,00;0,0529
1582,00;0,0530
1581,00;0,0530
1580,00;0,0530
1579,00;0,0531
1578,00;0,0532
1577,00;0,0532
1576,00;0,0533
1575,00;0,0533
1574,00;0,0534
1573,00;0,0534
1572,00;0,0535
1571,00;0,0535
1570,00;0,0535
1569,00;0,0535
1568,00;0,0536
1567,00;0,0536
1566,00;0,0536
1565,00;0,0537
1564,00;0,0537
1563,00;0,0538
1562,00;0,0538
1561,00;0,0539
1560,00;0,0539
1559,00;0,0539
1558,00;0,0539
1557,00;0,0539
1556,00;0,0540
1555,00;0,0540
1554,00;0,0540
1553,00;0,0540
1552,00;0,0540
1551,00;0,0540
1550,00;0,0540
1549,00;0,0540
1548,00;0,0540
1547,00;0,0540
1546,00;0,0540
1545,00;0,0540
1544,00;0,0540
1543,00;0,0540
1542,00;0,0540
1541,00;0,0540
1540,00;0,0540
1539,00;0,0540
1538,00;0,0540
1537,00;0,0540
1536,00;0,0539
1535,00;0,0539
1534,00;0,0538
1533,00;0,0538
1532,00;0,0538
1531,00;0,0538
1530,00;0,0538
1529,00;0,0539
1528,00;0,0539
1527,00;0,0539
1526,00;0,0539
1525,00;0,0539
1524,00;0,0539
1523,00;0,0539
1522,00;0,0539
1521,00;0,0539
1520,00;0,0538
1519,00;0,0538
1518,00;0,0538
1517,00;0,0538
1516,00;0,0537
1515,00;0,0537
1514,00;0,0537
1513,00;0,0537
1512,00;0,0537
1511,00;0,0537
1510,00;0,0536
1509,00;0,0536
1508,00;0,0536
1507,00;0,0536
1506,00;0,0536
1505,00;0,0536
1504,00;0,0536
1503,00;0,0535
1502,00;0,0535
1501,00;0,0535
1500,00;0,0535
1499,00;0,0535
1498,00;0,0535
1497,00;0,0534
1496,00;0,0534
1495,00;0,0534
1494,00;0,0534
1493,00;0,0534
1492,00;0,0534
1491,00;0,0533
1490,00;0,0533
1489,00;0,0533
1488,00;0,0533
1487,00;0,0533
1486,00;0,0533
1485,00;0,0532
1484,00;0,0532
1483,00;0,0532
1482,00;0,0532
1481,00;0,0531
1480,00;0,0531
1479,00;0,0531
1478,00;0,0532
1477,00;0,0532
1476,00;0,0532
1475,00;0,0532
1474,00;0,0532
1473,00;0,0531
1472,00;0,0531
1471,00;0,0530
1470,00;0,0530
1469,00;0,0529
1468,00;0,0529
1467,00;0,0529
1466,00;0,0530
1465,00;0,0530
1464,00;0,0531
1463,00;0,0531
1462,00;0,0531
1461,00;0,0532
1460,00;0,0532
1459,00;0,0532
1458,00;0,0533
1457,00;0,0533
1456,00;0,0533
1455,00;0,0534
1454,00;0,0534
1453,00;0,0534
1452,00;0,0534
1451,00;0,0534
1450,00;0,0535
1449,00;0,0535
1448,00;0,0535
1447,00;0,0536
1446,00;0,0536
1445,00;0,0536
1444,00;0,0536
1443,00;0,0537
1442,00;0,0537
1441,00;0,0537
1440,00;0,0538
1439,00;0,0538
1438,00;0,0539
1437,00;0,0539
1436,00;0,0539
1435,00;0,0540
1434,00;0,0540
1433,00;0,0540
1432,00;0,0540
1431,00;0,0540
1430,00;0,0540
1429,00;0,0540
1428,00;0,0540
1427,00;0,0541
1426,00;0,0541
1425,00;0,0542
1424,00;0,0542
1423,00;0,0542
1422,00;0,0543
1421,00;0,0543
1420,00;0,0543
1419,00;0,0544
1418,00;0,0544
1417,00;0,0544
1416,00;0,0545
1415,00;0,0545
1414,00;0,0545
1413,00;0,0545
1412,00;0,0546
1411,00;0,0546
1410,00;0,0547
1409,00;0,0547
1408,00;0,0547
1407,00;0,0547
1406,00;0,0548
1405,00;0,0548
1404,00;0,0548
1403,00;0,0548
1402,00;0,0548
1401,00;0,0548
1400,00;0,0548
1399,00;0,0549
1398,00;0,0549
1397,00;0,0549
1396,00;0,0550
1395,00;0,0550
1394,00;0,0550
1393,00;0,0550
1392,00;0,0550
1391,00;0,0550
1390,00;0,0549
1389,00;0,0549
1388,00;0,0549
1387,00;0,0549
1386,00;0,0549
1385,00;0,0550
1384,00;0,0550
1383,00;0,0550
1382,00;0,0550
1381,00;0,0550
1380,00;0,0551
1379,00;0,0551
1378,00;0,0551
1377,00;0,0551
1376,00;0,0551
1375,00;0,0552
1374,00;0,0552
1373,00;0,0551
1372,00;0,0551
1371,00;0,0551
1370,00;0,0551
1369,00;0,0551
1368,00;0,0551
1367,00;0,0551
1366,00;0,0551
1365,00;0,0551
1364,00;0,0551
1363,00;0,0551
1362,00;0,0551
1361,00;0,0551
1360,00;0,0551
1359,00;0,0551
1358,00;0,0551
1357,00;0,0551
1356,00;0,0551
1355,00;0,0551
1354,00;0,0551
1353,00;0,0551
1352,00;0,0551
1351,00;0,0551
1350,00;0,0551
1349,00;0,0551
1348,00;0,0551
1347,00;0,0551
1346,00;0,0551
1345,00;0,0551
1344,00;0,0551
1343,00;0,0551
1342,00;0,0551
1341,00;0,0551
1340,00;0,0551
1339,00;0,0551
1338,00;0,0551
1337,00;0,0551
1336,00;0,0551
1335,00;0,0550
1334,00;0,0550
1333,00;0,0550
1332,00;0,0550
1331,00;0,0550
1330,00;0,0550
1329,00;0,0550
1328,00;0,0550
1327,00;0,0550
1326,00;0,0550
1325,00;0,0550
1324,00;0,0550
1323,00;0,0550
1322,00;0,0550
1321,00;0,0549
1320,00;0,0549
1319,00;0,0549
1318,00;0,0549
1317,00;0,0549
1316,00;0,0549
1315,00;0,0549
1314,00;0,0549
1313,00;0,0549
1312,00;0,0549
1311,00;0,0549
1310,00;0,0548
1309,00;0,0548
1308,00;0,0548
1307,00;0,0548
1306,00;0,0548
1305,00;0,0548
1304,00;0,0548
1303,00;0,0548
1302,00;0,0548
1301,00;0,0548
1300,00;0,0548
1299,00;0,0548
1298,00;0,0547
1297,00;0,0547
1296,00;0,0547
1295,00;0,0547
1294,00;0,0547
1293,00;0,0547
1292,00;0,0547
1291,00;0,0547
1290,00;0,0547
1289,00;0,0547
1288,00;0,0547
1287,00;0,0547
1286,00;0,0546
1285,00;0,0546
1284,00;0,0546
1283,00;0,0546
1282,00;0,0546
1281,00;0,0546
1280,00;0,0546
1279,00;0,0546
1278,00;0,0546
1277,00;0,0546
1276,00;0,0546
1275,00;0,0546
1274,00;0,0546
1273,00;0,0546
1272,00;0,0546
1271,00;0,0546
1270,00;0,0546
1269,00;0,0546
1268,00;0,0546
1267,00;0,0546
1266,00;0,0547
1265,00;0,0547
1264,00;0,0547
1263,00;0,0547
1262,00;0,0548
1261,00;0,0548
1260,00;0,0548
1259,00;0,0548
1258,00;0,0548
1257,00;0,0548
1256,00;0,0548
1255,00;0,0548
1254,00;0,0549
1253,00;0,0549
1252,00;0,0549
1251,00;0,0549
1250,00;0,0550
1249,00;0,0549
1248,00;0,0549
1247,00;0,0549
1246,00;0,0549
1245,00;0,0549
1244,00;0,0549
1243,00;0,0549
1242,00;0,0549
1241,00;0,0549
1240,00;0,0549
1239,00;0,0549
1238,00;0,0549
1237,00;0,0549
1236,00;0,0549
1235,00;0,0550
1234,00;0,0550
1233,00;0,0549
1232,00;0,0549
1231,00;0,0549
1230,00;0,0549
1229,00;0,0549
1228,00;0,0549
1227,00;0,0549
1226,00;0,0549
1225,00;0,0549
1224,00;0,0549
1223,00;0,0548
1222,00;0,0548
1221,00;0,0548
1220,00;0,0548
1219,00;0,0548
1218,00;0,0548
1217,00;0,0548
1216,00;0,0548
1215,00;0,0547
1214,00;0,0547
1213,00;0,0547
1212,00;0,0547
1211,00;0,0547
1210,00;0,0546
1209,00;0,0546
1208,00;0,0545
1207,00;0,0545
1206,00;0,0545
1205,00;0,0545
1204,00;0,0545
1203,00;0,0545
1202,00;0,0544
1201,00;0,0544
1200,00;0,0544
1199,00;0,0544
1198,00;0,0544
1197,00;0,0543
1196,00;0,0543
1195,00;0,0543
1194,00;0,0543
1193,00;0,0543
1192,00;0,0543
1191,00;0,0543
1190,00;0,0543
1189,00;0,0542
1188,00;0,0542
1187,00;0,0542
1186,00;0,0541
1185,00;0,0541
1184,00;0,0541
1183,00;0,0541
1182,00;0,0541
1181,00;0,0541
1180,00;0,0541
1179,00;0,0541
1178,00;0,0541
1177,00;0,0541
1176,00;0,0541
1175,00;0,0541
1174,00;0,0541
1173,00;0,0541
1172,00;0,0541
1171,00;0,0541
1170,00;0,0541
1169,00;0,0541
1168,00;0,0541
1167,00;0,0541
1166,00;0,0541
1165,00;0,0541
1164,00;0,0541
1163,00;0,0541
1162,00;0,0540
1161,00;0,0540
1160,00;0,0540
1159,00;0,0540
1158,00;0,0540
1157,00;0,0540
1156,00;0,0540
1155,00;0,0540
1154,00;0,0540
1153,00;0,0540
1152,00;0,0539
1151,00;0,0539
1150,00;0,0539
1149,00;0,0539
1148,00;0,0539
1147,00;0,0539
1146,00;0,0539
1145,00;0,0539
1144,00;0,0539
1143,00;0,0539
1142,00;0,0538
1141,00;0,0538
1140,00;0,0538
1139,00;0,0538
1138,00;0,0538
1137,00;0,0537
1136,00;0,0537
1135,00;0,0537
1134,00;0,0537
1133,00;0,0537
1132,00;0,0537
1131,00;0,0538
1130,00;0,0538
1129,00;0,0538
1128,00;0,0538
1127,00;0,0538
1126,00;0,0537
1125,00;0,0537
1124,00;0,0537
1123,00;0,0537
1122,00;0,0537
1121,00;0,0537
1120,00;0,0537
1119,00;0,0537
1118,00;0,0537
1117,00;0,0537
1116,00;0,0537
1115,00;0,0537
1114,00;0,0537
1113,00;0,0537
1112,00;0,0537
1111,00;0,0537
1110,00;0,0537
1109,00;0,0537
1108,00;0,0538
1107,00;0,0538
1106,00;0,0538
1105,00;0,0537
1104,00;0,0537
1103,00;0,0537
1102,00;0,0537
1101,00;0,0537
1100,00;0,0537
1099,00;0,0537
1098,00;0,0537
1097,00;0,0537
1096,00;0,0537
1095,00;0,0536
1094,00;0,0536
1093,00;0,0536
1092,00;0,0536
1091,00;0,0536
1090,00;0,0536
1089,00;0,0536
1088,00;0,0536
1087,00;0,0536
1086,00;0,0536
1085,00;0,0536
1084,00;0,0536
1083,00;0,0536
1082,00;0,0536
1081,00;0,0536
1080,00;0,0536
1079,00;0,0536
1078,00;0,0536
1077,00;0,0536
1076,00;0,0536
1075,00;0,0536
1074,00;0,0536
1073,00;0,0535
1072,00;0,0535
1071,00;0,0535
1070,00;0,0535
1069,00;0,0535
1068,00;0,0535
1067,00;0,0535
1066,00;0,0535
1065,00;0,0534
1064,00;0,0533
1063,00;0,0533
1062,00;0,0533
1061,00;0,0533
1060,00;0,0533
1059,00;0,0533
1058,00;0,0533
1057,00;0,0533
1056,00;0,0533
1055,00;0,0532
1054,00;0,0532
1053,00;0,0532
1052,00;0,0532
1051,00;0,0532
1050,00;0,0532
1049,00;0,0531
1048,00;0,0531
1047,00;0,0530
1046,00;0,0529
1045,00;0,0528
1044,00;0,0528
1043,00;0,0528
1042,00;0,0527
1041,00;0,0527
1040,00;0,0526
1039,00;0,0525
1038,00;0,0524
1037,00;0,0523
1036,00;0,0522
1035,00;0,0522
1034,00;0,0521
1033,00;0,0520
1032,00;0,0520
1031,00;0,0519
1030,00;0,0519
1029,00;0,0519
1028,00;0,0519
1027,00;0,0518
1026,00;0,0517
1025,00;0,0516
1024,00;0,0515
1023,00;0,0514
1022,00;0,0513
1021,00;0,0512
1020,00;0,0511
1019,00;0,0511
1018,00;0,0511
1017,00;0,0510
1016,00;0,0510
1015,00;0,0509
1014,00;0,0508
1013,00;0,0507
1012,00;0,0506
1011,00;0,0505
1010,00;0,0504
1009,00;0,0503
1008,00;0,0502
1007,00;0,0501
1006,00;0,0501
1005,00;0,0500
1004,00;0,0500
1003,00;0,0499
1002,00;0,0499
1001,00;0,0498
1000,00;0,0498
999,00;0,0497
998,00;0,0496
997,00;0,0495
996,00;0,0495
995,00;0,0494
994,00;0,0493
993,00;0,0493
992,00;0,0492
991,00;0,0491
990,00;0,0490
989,00;0,0490
988,00;0,0489
987,00;0,0489
986,00;0,0488
985,00;0,0487
984,00;0,0487
983,00;0,0486
982,00;0,0486
981,00;0,0485
980,00;0,0485
979,00;0,0484
978,00;0,0484
977,00;0,0483
976,00;0,0482
975,00;0,0481
974,00;0,0481
973,00;0,0480
972,00;0,0479
971,00;0,0479
970,00;0,0478
969,00;0,0477
968,00;0,0477
967,00;0,0476
966,00;0,0476
965,00;0,0475
964,00;0,0475
963,00;0,0474
962,00;0,0473
961,00;0,0473
960,00;0,0472
959,00;0,0471
958,00;0,0470
957,00;0,0470
956,00;0,0469
955,00;0,0468
954,00;0,0467
953,00;0,0467
952,00;0,0466
951,00;0,0465
950,00;0,0464
949,00;0,0464
948,00;0,0463
947,00;0,0462
946,00;0,0462
945,00;0,0461
944,00;0,0460
943,00;0,0459
942,00;0,0459
941,00;0,0458
940,00;0,0457
939,00;0,0456
938,00;0,0456
937,00;0,0455
936,00;0,0454
935,00;0,0453
934,00;0,0453
933,00;0,0452
932,00;0,0451
931,00;0,0451
930,00;0,0450
929,00;0,0450
928,00;0,0449
927,00;0,0448
926,00;0,0447
925,00;0,0446
924,00;0,0446
923,00;0,0445
922,00;0,0444
921,00;0,0443
920,00;0,0443
919,00;0,0442
918,00;0,0441
917,00;0,0441
916,00;0,0440
915,00;0,0440
914,00;0,0439
913,00;0,0439
912,00;0,0438
911,00;0,0438
910,00;0,0437
909,00;0,0436
908,00;0,0435
907,00;0,0434
906,00;0,0433
905,00;0,0432
904,00;0,0432
903,00;0,0431
902,00;0,0431
901,00;0,0431
900,00;0,0431
899,00;0,0431
898,00;0,0430
897,00;0,0429
896,00;0,0429
895,00;0,0428
894,00;0,0428
893,00;0,0427
892,00;0,0426
891,00;0,0425
890,00;0,0424
889,00;0,0423
888,00;0,0422
887,00;0,0421
886,00;0,0420
885,00;0,0420
884,00;0,0419
883,00;0,0419
882,00;0,0418
881,00;0,0417
880,00;0,0416
879,00;0,0415
878,00;0,0414
877,00;0,0413
876,00;0,0413
875,00;0,0412
874,00;0,0411
873,00;0,0410
872,00;0,0409
871,00;0,0408
870,00;0,0407
869,00;0,0406
868,00;0,0405
867,00;0,0403
866,00;0,0402
865,00;0,0401
864,00;0,0400
863,00;0,0399
862,00;0,0397
861,00;0,0396
860,00;0,0395
859,00;0,0394
858,00;0,0393
857,00;0,0392
856,00;0,0391
855,00;0,0391
854,00;0,0390
853,00;0,0389
852,00;0,0387
851,00;0,0386
850,00;0,0384
849,00;0,0384
848,00;0,0383
847,00;0,0382
846,00;0,0381
845,00;0,0380
844,00;0,0379
843,00;0,0378
842,00;0,0377
841,00;0,0376
840,00;0,0375
839,00;0,0374
838,00;0,0374
837,00;0,0373
836,00;0,0372
835,00;0,0371
834,00;0,0370
833,00;0,0369
832,00;0,0368
831,00;0,0366
830,00;0,0365
829,00;0,0364
828,00;0,0363
827,00;0,0362
826,00;0,0361
825,00;0,0359
824,00;0,0358
823,00;0,0357
822,00;0,0357
821,00;0,0356
820,00;0,0356
819,00;0,0355
818,00;0,0354
817,00;0,0353
816,00;0,0352
815,00;0,0351
814,00;0,0350
813,00;0,0349
812,00;0,0348
811,00;0,0347
810,00;0,0346
809,00;0,0345
808,00;0,0344
807,00;0,0343
806,00;0,0342
805,00;0,0341
804,00;0,0340
803,00;0,0339
802,00;0,0338
801,00;0,0337
800,00;0,0336
799,00;0,0335
798,00;0,0335
797,00;0,0334
796,00;0,0334
795,00;0,0334
794,00;0,0333
793,00;0,0331
792,00;0,0329
791,00;0,0328
790,00;0,0327
789,00;0,0326
788,00;0,0326
787,00;0,0326
786,00;0,0327
785,00;0,0328
784,00;0,0328
783,00;0,0328
782,00;0,0328
781,00;0,0327
780,00;0,0326
779,00;0,0325
778,00;0,0324
777,00;0,0323
776,00;0,0324
775,00;0,0324
774,00;0,0324
773,00;0,0324
772,00;0,0323
771,00;0,0323
770,00;0,0323
769,00;0,0323
768,00;0,0324
767,00;0,0324
766,00;0,0324
765,00;0,0323
764,00;0,0323
763,00;0,0323
762,00;0,0322
761,00;0,0322
760,00;0,0321
759,00;0,0322
758,00;0,0322
757,00;0,0323
756,00;0,0323
755,00;0,0323
754,00;0,0322
753,00;0,0321
752,00;0,0320
751,00;0,0319
750,00;0,0318
749,00;0,0318
748,00;0,0319
747,00;0,0319
746,00;0,0319
745,00;0,0318
744,00;0,0318
743,00;0,0318
742,00;0,0320
741,00;0,0323
740,00;0,0326
739,00;0,0329
738,00;0,0332
737,00;0,0335
736,00;0,0338
735,00;0,0341
734,00;0,0345
733,00;0,0349
732,00;0,0353
731,00;0,0357
730,00;0,0360
729,00;0,0362
728,00;0,0361
727,00;0,0360
726,00;0,0358
725,00;0,0356
724,00;0,0354
723,00;0,0353
722,00;0,0353
721,00;0,0351
720,00;0,0349
719,00;0,0346
718,00;0,0343
717,00;0,0341
716,00;0,0341
715,00;0,0341
714,00;0,0341
713,00;0,0342
712,00;0,0344
711,00;0,0346
710,00;0,0349
709,00;0,0350
708,00;0,0352
707,00;0,0352
706,00;0,0354
705,00;0,0357
704,00;0,0361
703,00;0,0365
702,00;0,0370
701,00;0,0375
700,00;0,0380
699,00;0,0386
698,00;0,0391
697,00;0,0396
696,00;0,0401
695,00;0,0404
694,00;0,0407
693,00;0,0408
692,00;0,0409
691,00;0,0408
690,00;0,0407
689,00;0,0406
688,00;0,0404
687,00;0,0401
686,00;0,0397
685,00;0,0392
684,00;0,0387
683,00;0,0380
682,00;0,0373
681,00;0,0367
680,00;0,0361
679,00;0,0355
678,00;0,0349
677,00;0,0344
676,00;0,0339
675,00;0,0337
674,00;0,0335
673,00;0,0333
672,00;0,0330
671,00;0,0327
670,00;0,0324
669,00;0,0323
668,00;0,0323
667,00;0,0322
666,00;0,0320
665,00;0,0317
664,00;0,0314
663,00;0,0312
662,00;0,0309
661,00;0,0306
660,00;0,0305
659,00;0,0304
658,00;0,0303
657,00;0,0304
656,00;0,0305
655,00;0,0306
654,00;0,0308
653,00;0,0310
652,00;0,0312
651,00;0,0315
650,00;0,0318
649,00;0,0320
648,00;0,0324
647,00;0,0328
646,00;0,0334
645,00;0,0339
644,00;0,0345
643,00;0,0352
642,00;0,0358
641,00;0,0365
640,00;0,0371
639,00;0,0377
638,00;0,0382
637,00;0,0388
636,00;0,0393
635,00;0,0398
634,00;0,0401
633,00;0,0403
632,00;0,0404
631,00;0,0401
630,00;0,0397
629,00;0,0391
628,00;0,0386
627,00;0,0382
626,00;0,0379
625,00;0,0376
624,00;0,0374
623,00;0,0371
622,00;0,0367
621,00;0,0363
620,00;0,0359
619,00;0,0355
618,00;0,0351
617,00;0,0348
616,00;0,0346
615,00;0,0344
614,00;0,0343
613,00;0,0342
612,00;0,0342
611,00;0,0339
610,00;0,0335
609,00;0,0333
608,00;0,0333
607,00;0,0333
606,00;0,0333
605,00;0,0332
604,00;0,0331
603,00;0,0332
602,00;0,0332
601,00;0,0332
600,00;0,0332
599,00;0,0332
598,00;0,0332
597,00;0,0332
596,00;0,0333
595,00;0,0333
594,00;0,0332
593,00;0,0333
592,00;0,0334
591,00;0,0337
590,00;0,0341
589,00;0,0344
588,00;0,0347
587,00;0,0350
586,00;0,0354
585,00;0,0357
584,00;0,0359
583,00;0,0360
582,00;0,0360
581,00;0,0360
580,00;0,0359
579,00;0,0357
578,00;0,0355
577,00;0,0355
576,00;0,0355
575,00;0,0354
574,00;0,0350
573,00;0,0347
572,00;0,0346
571,00;0,0347
570,00;0,0349
569,00;0,0352
568,00;0,0356
567,00;0,0358
566,00;0,0359
565,00;0,0361
564,00;0,0365
563,00;0,0370
562,00;0,0375
561,00;0,0382
560,00;0,0390
559,00;0,0397
558,00;0,0402
557,00;0,0405
556,00;0,0407
555,00;0,0408
554,00;0,0411
553,00;0,0416
552,00;0,0421
551,00;0,0424
550,00;0,0423
549,00;0,0421
548,00;0,0418
547,00;0,0415
546,00;0,0412
545,00;0,0410
544,00;0,0409
543,00;0,0407
542,00;0,0404
541,00;0,0399
540,00;0,0394
539,00;0,0387
538,00;0,0379
537,00;0,0371
536,00;0,0364
535,00;0,0355
534,00;0,0344
533,00;0,0333
532,00;0,0323
531,00;0,0314
530,00;0,0305
529,00;0,0296
528,00;0,0286
527,00;0,0274
526,00;0,0261
525,00;0,0247
524,00;0,0236
523,00;0,0226
522,00;0,0215
521,00;0,0202
520,00;0,0189
519,00;0,0175
518,00;0,0161
517,00;0,0149
516,00;0,0137
515,00;0,0122
514,00;0,0107
513,00;0,0093
512,00;0,0081
511,00;0,0068
510,00;0,0054
509,00;0,0040
508,00;0,0025
507,00;0,0009
506,00;-0,0006
505,00;-0,0019
504,00;-0,0030
503,00;-0,0040
502,00;-0,0051
501,00;-0,0062
500,00;-0,0076
