Создан как новый массив данных;Образец 001 полученный BalashovM Дата вторник, ноября 16 2021
cm-1;A
4000,00;0,0434
3999,00;0,0434
3998,00;0,0434
3997,00;0,0434
3996,00;0,0434
3995,00;0,0434
3994,00;0,0434
3993,00;0,0434
3992,00;0,0434
3991,00;0,0434
3990,00;0,0434
3989,00;0,0434
3988,00;0,0434
3987,00;0,0434
3986,00;0,0434
3985,00;0,0434
3984,00;0,0434
3983,00;0,0434
3982,00;0,0434
3981,00;0,0434
3980,00;0,0434
3979,00;0,0434
3978,00;0,0434
3977,00;0,0434
3976,00;0,0434
3975,00;0,0434
3974,00;0,0434
3973,00;0,0434
3972,00;0,0434
3971,00;0,0434
3970,00;0,0434
3969,00;0,0434
3968,00;0,0434
3967,00;0,0434
3966,00;0,0434
3965,00;0,0434
3964,00;0,0434
3963,00;0,0434
3962,00;0,0434
3961,00;0,0434
3960,00;0,0434
3959,00;0,0434
3958,00;0,0434
3957,00;0,0434
3956,00;0,0434
3955,00;0,0434
3954,00;0,0434
3953,00;0,0434
3952,00;0,0434
3951,00;0,0434
3950,00;0,0434
3949,00;0,0434
3948,00;0,0434
3947,00;0,0434
3946,00;0,0434
3945,00;0,0434
3944,00;0,0434
3943,00;0,0434
3942,00;0,0434
3941,00;0,0434
3940,00;0,0434
3939,00;0,0434
3938,00;0,0434
3937,00;0,0434
3936,00;0,0434
3935,00;0,0434
3934,00;0,0434
3933,00;0,0434
3932,00;0,0434
3931,00;0,0434
3930,00;0,0434
3929,00;0,0434
3928,00;0,0434
3927,00;0,0434
3926,00;0,0434
3925,00;0,0434
3924,00;0,0435
3923,00;0,0435
3922,00;0,0435
3921,00;0,0435
3920,00;0,0435
3919,00;0,0435
3918,00;0,0435
3917,00;0,0435
3916,00;0,0435
3915,00;0,0434
3914,00;0,0434
3913,00;0,0434
3912,00;0,0434
3911,00;0,0435
3910,00;0,0435
3909,00;0,0435
3908,00;0,0435
3907,00;0,0435
3906,00;0,0435
3905,00;0,0435
3904,00;0,0435
3903,00;0,0435
3902,00;0,0435
3901,00;0,0435
3900,00;0,0435
3899,00;0,0435
3898,00;0,0435
3897,00;0,0435
3896,00;0,0435
3895,00;0,0435
3894,00;0,0435
3893,00;0,0435
3892,00;0,0435
3891,00;0,0435
3890,00;0,0435
3889,00;0,0435
3888,00;0,0435
3887,00;0,0435
3886,00;0,0435
3885,00;0,0435
3884,00;0,0435
3883,00;0,0435
3882,00;0,0435
3881,00;0,0435
3880,00;0,0435
3879,00;0,0435
3878,00;0,0435
3877,00;0,0435
3876,00;0,0435
3875,00;0,0435
3874,00;0,0435
3873,00;0,0435
3872,00;0,0435
3871,00;0,0435
3870,00;0,0435
3869,00;0,0435
3868,00;0,0435
3867,00;0,0435
3866,00;0,0435
3865,00;0,0435
3864,00;0,0435
3863,00;0,0435
3862,00;0,0435
3861,00;0,0435
3860,00;0,0435
3859,00;0,0436
3858,00;0,0436
3857,00;0,0436
3856,00;0,0436
3855,00;0,0436
3854,00;0,0436
3853,00;0,0436
3852,00;0,0436
3851,00;0,0436
3850,00;0,0436
3849,00;0,0436
3848,00;0,0436
3847,00;0,0436
3846,00;0,0436
3845,00;0,0436
3844,00;0,0436
3843,00;0,0436
3842,00;0,0436
3841,00;0,0436
3840,00;0,0436
3839,00;0,0436
3838,00;0,0436
3837,00;0,0436
3836,00;0,0436
3835,00;0,0436
3834,00;0,0436
3833,00;0,0436
3832,00;0,0436
3831,00;0,0436
3830,00;0,0436
3829,00;0,0436
3828,00;0,0436
3827,00;0,0436
3826,00;0,0436
3825,00;0,0436
3824,00;0,0436
3823,00;0,0436
3822,00;0,0436
3821,00;0,0436
3820,00;0,0436
3819,00;0,0436
3818,00;0,0436
3817,00;0,0436
3816,00;0,0436
3815,00;0,0436
3814,00;0,0436
3813,00;0,0435
3812,00;0,0435
3811,00;0,0435
3810,00;0,0435
3809,00;0,0435
3808,00;0,0435
3807,00;0,0435
3806,00;0,0435
3805,00;0,0435
3804,00;0,0435
3803,00;0,0435
3802,00;0,0435
3801,00;0,0435
3800,00;0,0435
3799,00;0,0435
3798,00;0,0435
3797,00;0,0435
3796,00;0,0435
3795,00;0,0435
3794,00;0,0435
3793,00;0,0435
3792,00;0,0435
3791,00;0,0435
3790,00;0,0435
3789,00;0,0435
3788,00;0,0435
3787,00;0,0435
3786,00;0,0435
3785,00;0,0435
3784,00;0,0435
3783,00;0,0435
3782,00;0,0435
3781,00;0,0435
3780,00;0,0435
3779,00;0,0435
3778,00;0,0435
3777,00;0,0435
3776,00;0,0435
3775,00;0,0435
3774,00;0,0435
3773,00;0,0435
3772,00;0,0435
3771,00;0,0435
3770,00;0,0435
3769,00;0,0435
3768,00;0,0435
3767,00;0,0435
3766,00;0,0435
3765,00;0,0435
3764,00;0,0435
3763,00;0,0435
3762,00;0,0435
3761,00;0,0435
3760,00;0,0435
3759,00;0,0435
3758,00;0,0435
3757,00;0,0435
3756,00;0,0435
3755,00;0,0435
3754,00;0,0435
3753,00;0,0435
3752,00;0,0435
3751,00;0,0435
3750,00;0,0435
3749,00;0,0435
3748,00;0,0435
3747,00;0,0435
3746,00;0,0435
3745,00;0,0435
3744,00;0,0435
3743,00;0,0435
3742,00;0,0435
3741,00;0,0435
3740,00;0,0435
3739,00;0,0435
3738,00;0,0435
3737,00;0,0435
3736,00;0,0435
3735,00;0,0435
3734,00;0,0434
3733,00;0,0434
3732,00;0,0434
3731,00;0,0435
3730,00;0,0435
3729,00;0,0435
3728,00;0,0435
3727,00;0,0435
3726,00;0,0435
3725,00;0,0435
3724,00;0,0434
3723,00;0,0434
3722,00;0,0434
3721,00;0,0434
3720,00;0,0434
3719,00;0,0434
3718,00;0,0434
3717,00;0,0435
3716,00;0,0435
3715,00;0,0435
3714,00;0,0435
3713,00;0,0435
3712,00;0,0435
3711,00;0,0435
3710,00;0,0435
3709,00;0,0435
3708,00;0,0435
3707,00;0,0435
3706,00;0,0435
3705,00;0,0435
3704,00;0,0435
3703,00;0,0435
3702,00;0,0435
3701,00;0,0435
3700,00;0,0435
3699,00;0,0435
3698,00;0,0435
3697,00;0,0435
3696,00;0,0435
3695,00;0,0435
3694,00;0,0435
3693,00;0,0435
3692,00;0,0435
3691,00;0,0435
3690,00;0,0435
3689,00;0,0435
3688,00;0,0435
3687,00;0,0435
3686,00;0,0435
3685,00;0,0435
3684,00;0,0435
3683,00;0,0435
3682,00;0,0435
3681,00;0,0435
3680,00;0,0435
3679,00;0,0435
3678,00;0,0435
3677,00;0,0435
3676,00;0,0435
3675,00;0,0435
3674,00;0,0435
3673,00;0,0435
3672,00;0,0435
3671,00;0,0435
3670,00;0,0435
3669,00;0,0435
3668,00;0,0435
3667,00;0,0435
3666,00;0,0435
3665,00;0,0435
3664,00;0,0434
3663,00;0,0434
3662,00;0,0434
3661,00;0,0434
3660,00;0,0434
3659,00;0,0434
3658,00;0,0434
3657,00;0,0434
3656,00;0,0434
3655,00;0,0434
3654,00;0,0434
3653,00;0,0434
3652,00;0,0434
3651,00;0,0434
3650,00;0,0434
3649,00;0,0434
3648,00;0,0434
3647,00;0,0434
3646,00;0,0434
3645,00;0,0434
3644,00;0,0434
3643,00;0,0434
3642,00;0,0434
3641,00;0,0434
3640,00;0,0434
3639,00;0,0434
3638,00;0,0434
3637,00;0,0434
3636,00;0,0434
3635,00;0,0434
3634,00;0,0434
3633,00;0,0434
3632,00;0,0434
3631,00;0,0434
3630,00;0,0434
3629,00;0,0434
3628,00;0,0434
3627,00;0,0434
3626,00;0,0434
3625,00;0,0434
3624,00;0,0434
3623,00;0,0434
3622,00;0,0434
3621,00;0,0434
3620,00;0,0434
3619,00;0,0434
3618,00;0,0434
3617,00;0,0434
3616,00;0,0434
3615,00;0,0434
3614,00;0,0434
3613,00;0,0434
3612,00;0,0434
3611,00;0,0434
3610,00;0,0434
3609,00;0,0434
3608,00;0,0434
3607,00;0,0434
3606,00;0,0434
3605,00;0,0434
3604,00;0,0434
3603,00;0,0434
3602,00;0,0434
3601,00;0,0435
3600,00;0,0435
3599,00;0,0435
3598,00;0,0435
3597,00;0,0435
3596,00;0,0435
3595,00;0,0435
3594,00;0,0435
3593,00;0,0435
3592,00;0,0435
3591,00;0,0435
3590,00;0,0435
3589,00;0,0435
3588,00;0,0435
3587,00;0,0435
3586,00;0,0435
3585,00;0,0435
3584,00;0,0435
3583,00;0,0435
3582,00;0,0435
3581,00;0,0435
3580,00;0,0435
3579,00;0,0436
3578,00;0,0436
3577,00;0,0436
3576,00;0,0436
3575,00;0,0436
3574,00;0,0436
3573,00;0,0436
3572,00;0,0436
3571,00;0,0436
3570,00;0,0436
3569,00;0,0436
3568,00;0,0436
3567,00;0,0436
3566,00;0,0436
3565,00;0,0436
3564,00;0,0436
3563,00;0,0436
3562,00;0,0437
3561,00;0,0437
3560,00;0,0437
3559,00;0,0437
3558,00;0,0437
3557,00;0,0437
3556,00;0,0437
3555,00;0,0437
3554,00;0,0437
3553,00;0,0437
3552,00;0,0437
3551,00;0,0437
3550,00;0,0437
3549,00;0,0438
3548,00;0,0438
3547,00;0,0438
3546,00;0,0438
3545,00;0,0438
3544,00;0,0438
3543,00;0,0438
3542,00;0,0438
3541,00;0,0438
3540,00;0,0438
3539,00;0,0438
3538,00;0,0438
3537,00;0,0438
3536,00;0,0438
3535,00;0,0439
3534,00;0,0439
3533,00;0,0439
3532,00;0,0439
3531,00;0,0439
3530,00;0,0439
3529,00;0,0439
3528,00;0,0439
3527,00;0,0439
3526,00;0,0439
3525,00;0,0439
3524,00;0,0439
3523,00;0,0439
3522,00;0,0439
3521,00;0,0439
3520,00;0,0439
3519,00;0,0439
3518,00;0,0439
3517,00;0,0439
3516,00;0,0439
3515,00;0,0439
3514,00;0,0439
3513,00;0,0439
3512,00;0,0439
3511,00;0,0440
3510,00;0,0440
3509,00;0,0440
3508,00;0,0440
3507,00;0,0440
3506,00;0,0440
3505,00;0,0440
3504,00;0,0440
3503,00;0,0440
3502,00;0,0440
3501,00;0,0440
3500,00;0,0440
3499,00;0,0440
3498,00;0,0440
3497,00;0,0440
3496,00;0,0440
3495,00;0,0440
3494,00;0,0440
3493,00;0,0440
3492,00;0,0440
3491,00;0,0440
3490,00;0,0440
3489,00;0,0440
3488,00;0,0440
3487,00;0,0440
3486,00;0,0440
3485,00;0,0440
3484,00;0,0440
3483,00;0,0440
3482,00;0,0440
3481,00;0,0440
3480,00;0,0441
3479,00;0,0441
3478,00;0,0441
3477,00;0,0441
3476,00;0,0441
3475,00;0,0441
3474,00;0,0441
3473,00;0,0441
3472,00;0,0441
3471,00;0,0441
3470,00;0,0441
3469,00;0,0441
3468,00;0,0441
3467,00;0,0441
3466,00;0,0441
3465,00;0,0441
3464,00;0,0441
3463,00;0,0441
3462,00;0,0441
3461,00;0,0442
3460,00;0,0442
3459,00;0,0442
3458,00;0,0442
3457,00;0,0442
3456,00;0,0442
3455,00;0,0442
3454,00;0,0442
3453,00;0,0442
3452,00;0,0442
3451,00;0,0442
3450,00;0,0442
3449,00;0,0442
3448,00;0,0442
3447,00;0,0442
3446,00;0,0442
3445,00;0,0443
3444,00;0,0443
3443,00;0,0443
3442,00;0,0443
3441,00;0,0443
3440,00;0,0443
3439,00;0,0443
3438,00;0,0443
3437,00;0,0443
3436,00;0,0443
3435,00;0,0443
3434,00;0,0443
3433,00;0,0443
3432,00;0,0444
3431,00;0,0444
3430,00;0,0444
3429,00;0,0444
3428,00;0,0444
3427,00;0,0444
3426,00;0,0444
3425,00;0,0444
3424,00;0,0444
3423,00;0,0445
3422,00;0,0445
3421,00;0,0445
3420,00;0,0445
3419,00;0,0445
3418,00;0,0445
3417,00;0,0445
3416,00;0,0445
3415,00;0,0445
3414,00;0,0446
3413,00;0,0446
3412,00;0,0446
3411,00;0,0446
3410,00;0,0446
3409,00;0,0446
3408,00;0,0446
3407,00;0,0446
3406,00;0,0446
3405,00;0,0446
3404,00;0,0446
3403,00;0,0446
3402,00;0,0446
3401,00;0,0446
3400,00;0,0446
3399,00;0,0447
3398,00;0,0447
3397,00;0,0447
3396,00;0,0447
3395,00;0,0447
3394,00;0,0447
3393,00;0,0447
3392,00;0,0447
3391,00;0,0447
3390,00;0,0447
3389,00;0,0447
3388,00;0,0447
3387,00;0,0447
3386,00;0,0447
3385,00;0,0447
3384,00;0,0447
3383,00;0,0447
3382,00;0,0448
3381,00;0,0448
3380,00;0,0448
3379,00;0,0448
3378,00;0,0448
3377,00;0,0448
3376,00;0,0448
3375,00;0,0448
3374,00;0,0448
3373,00;0,0448
3372,00;0,0448
3371,00;0,0448
3370,00;0,0448
3369,00;0,0448
3368,00;0,0448
3367,00;0,0448
3366,00;0,0449
3365,00;0,0449
3364,00;0,0449
3363,00;0,0449
3362,00;0,0449
3361,00;0,0449
3360,00;0,0449
3359,00;0,0449
3358,00;0,0449
3357,00;0,0449
3356,00;0,0449
3355,00;0,0449
3354,00;0,0449
3353,00;0,0449
3352,00;0,0449
3351,00;0,0449
3350,00;0,0449
3349,00;0,0450
3348,00;0,0450
3347,00;0,0450
3346,00;0,0450
3345,00;0,0450
3344,00;0,0450
3343,00;0,0450
3342,00;0,0450
3341,00;0,0450
3340,00;0,0450
3339,00;0,0450
3338,00;0,0450
3337,00;0,0450
3336,00;0,0450
3335,00;0,0450
3334,00;0,0450
3333,00;0,0450
3332,00;0,0450
3331,00;0,0450
3330,00;0,0450
3329,00;0,0450
3328,00;0,0450
3327,00;0,0450
3326,00;0,0451
3325,00;0,0451
3324,00;0,0451
3323,00;0,0451
3322,00;0,0451
3321,00;0,0451
3320,00;0,0451
3319,00;0,0451
3318,00;0,0451
3317,00;0,0451
3316,00;0,0451
3315,00;0,0451
3314,00;0,0451
3313,00;0,0451
3312,00;0,0451
3311,00;0,0451
3310,00;0,0451
3309,00;0,0451
3308,00;0,0451
3307,00;0,0451
3306,00;0,0451
3305,00;0,0451
3304,00;0,0451
3303,00;0,0452
3302,00;0,0452
3301,00;0,0452
3300,00;0,0452
3299,00;0,0452
3298,00;0,0452
3297,00;0,0452
3296,00;0,0452
3295,00;0,0452
3294,00;0,0452
3293,00;0,0452
3292,00;0,0452
3291,00;0,0452
3290,00;0,0452
3289,00;0,0452
3288,00;0,0452
3287,00;0,0453
3286,00;0,0453
3285,00;0,0453
3284,00;0,0453
3283,00;0,0453
3282,00;0,0453
3281,00;0,0453
3280,00;0,0453
3279,00;0,0453
3278,00;0,0453
3277,00;0,0453
3276,00;0,0453
3275,00;0,0453
3274,00;0,0453
3273,00;0,0453
3272,00;0,0453
3271,00;0,0453
3270,00;0,0453
3269,00;0,0453
3268,00;0,0454
3267,00;0,0454
3266,00;0,0454
3265,00;0,0454
3264,00;0,0454
3263,00;0,0453
3262,00;0,0454
3261,00;0,0454
3260,00;0,0454
3259,00;0,0454
3258,00;0,0454
3257,00;0,0454
3256,00;0,0454
3255,00;0,0454
3254,00;0,0454
3253,00;0,0454
3252,00;0,0454
3251,00;0,0454
3250,00;0,0454
3249,00;0,0454
3248,00;0,0454
3247,00;0,0454
3246,00;0,0454
3245,00;0,0454
3244,00;0,0454
3243,00;0,0454
3242,00;0,0454
3241,00;0,0454
3240,00;0,0454
3239,00;0,0454
3238,00;0,0454
3237,00;0,0454
3236,00;0,0454
3235,00;0,0454
3234,00;0,0454
3233,00;0,0454
3232,00;0,0454
3231,00;0,0454
3230,00;0,0454
3229,00;0,0455
3228,00;0,0455
3227,00;0,0455
3226,00;0,0455
3225,00;0,0455
3224,00;0,0455
3223,00;0,0455
3222,00;0,0454
3221,00;0,0454
3220,00;0,0454
3219,00;0,0454
3218,00;0,0455
3217,00;0,0455
3216,00;0,0455
3215,00;0,0455
3214,00;0,0455
3213,00;0,0455
3212,00;0,0455
3211,00;0,0455
3210,00;0,0455
3209,00;0,0455
3208,00;0,0455
3207,00;0,0455
3206,00;0,0455
3205,00;0,0455
3204,00;0,0455
3203,00;0,0455
3202,00;0,0455
3201,00;0,0455
3200,00;0,0455
3199,00;0,0456
3198,00;0,0456
3197,00;0,0456
3196,00;0,0456
3195,00;0,0456
3194,00;0,0456
3193,00;0,0456
3192,00;0,0456
3191,00;0,0456
3190,00;0,0456
3189,00;0,0456
3188,00;0,0456
3187,00;0,0456
3186,00;0,0456
3185,00;0,0456
3184,00;0,0456
3183,00;0,0456
3182,00;0,0456
3181,00;0,0456
3180,00;0,0456
3179,00;0,0456
3178,00;0,0456
3177,00;0,0456
3176,00;0,0456
3175,00;0,0456
3174,00;0,0456
3173,00;0,0457
3172,00;0,0457
3171,00;0,0457
3170,00;0,0457
3169,00;0,0457
3168,00;0,0457
3167,00;0,0457
3166,00;0,0457
3165,00;0,0457
3164,00;0,0457
3163,00;0,0457
3162,00;0,0457
3161,00;0,0457
3160,00;0,0457
3159,00;0,0457
3158,00;0,0457
3157,00;0,0457
3156,00;0,0457
3155,00;0,0457
3154,00;0,0457
3153,00;0,0457
3152,00;0,0457
3151,00;0,0457
3150,00;0,0457
3149,00;0,0457
3148,00;0,0457
3147,00;0,0457
3146,00;0,0457
3145,00;0,0457
3144,00;0,0457
3143,00;0,0457
3142,00;0,0457
3141,00;0,0457
3140,00;0,0457
3139,00;0,0457
3138,00;0,0457
3137,00;0,0457
3136,00;0,0458
3135,00;0,0458
3134,00;0,0458
3133,00;0,0458
3132,00;0,0458
3131,00;0,0458
3130,00;0,0458
3129,00;0,0458
3128,00;0,0458
3127,00;0,0458
3126,00;0,0458
3125,00;0,0458
3124,00;0,0458
3123,00;0,0458
3122,00;0,0458
3121,00;0,0457
3120,00;0,0457
3119,00;0,0457
3118,00;0,0457
3117,00;0,0457
3116,00;0,0457
3115,00;0,0457
3114,00;0,0457
3113,00;0,0457
3112,00;0,0457
3111,00;0,0458
3110,00;0,0458
3109,00;0,0458
3108,00;0,0458
3107,00;0,0458
3106,00;0,0458
3105,00;0,0458
3104,00;0,0458
3103,00;0,0458
3102,00;0,0458
3101,00;0,0458
3100,00;0,0458
3099,00;0,0458
3098,00;0,0458
3097,00;0,0458
3096,00;0,0458
3095,00;0,0458
3094,00;0,0458
3093,00;0,0458
3092,00;0,0458
3091,00;0,0458
3090,00;0,0458
3089,00;0,0458
3088,00;0,0458
3087,00;0,0458
3086,00;0,0458
3085,00;0,0458
3084,00;0,0458
3083,00;0,0458
3082,00;0,0458
3081,00;0,0458
3080,00;0,0458
3079,00;0,0458
3078,00;0,0458
3077,00;0,0458
3076,00;0,0458
3075,00;0,0459
3074,00;0,0459
3073,00;0,0459
3072,00;0,0459
3071,00;0,0459
3070,00;0,0459
3069,00;0,0459
3068,00;0,0459
3067,00;0,0459
3066,00;0,0459
3065,00;0,0459
3064,00;0,0459
3063,00;0,0459
3062,00;0,0459
3061,00;0,0459
3060,00;0,0459
3059,00;0,0459
3058,00;0,0459
3057,00;0,0459
3056,00;0,0459
3055,00;0,0459
3054,00;0,0459
3053,00;0,0459
3052,00;0,0459
3051,00;0,0459
3050,00;0,0459
3049,00;0,0459
3048,00;0,0459
3047,00;0,0459
3046,00;0,0459
3045,00;0,0459
3044,00;0,0459
3043,00;0,0459
3042,00;0,0460
3041,00;0,0460
3040,00;0,0460
3039,00;0,0460
3038,00;0,0460
3037,00;0,0460
3036,00;0,0460
3035,00;0,0460
3034,00;0,0460
3033,00;0,0460
3032,00;0,0460
3031,00;0,0460
3030,00;0,0461
3029,00;0,0461
3028,00;0,0461
3027,00;0,0461
3026,00;0,0461
3025,00;0,0461
3024,00;0,0461
3023,00;0,0461
3022,00;0,0461
3021,00;0,0461
3020,00;0,0461
3019,00;0,0461
3018,00;0,0461
3017,00;0,0460
3016,00;0,0460
3015,00;0,0460
3014,00;0,0460
3013,00;0,0460
3012,00;0,0460
3011,00;0,0460
3010,00;0,0460
3009,00;0,0461
3008,00;0,0461
3007,00;0,0462
3006,00;0,0462
3005,00;0,0462
3004,00;0,0462
3003,00;0,0462
3002,00;0,0462
3001,00;0,0462
3000,00;0,0462
2999,00;0,0462
2998,00;0,0462
2997,00;0,0462
2996,00;0,0462
2995,00;0,0461
2994,00;0,0461
2993,00;0,0461
2992,00;0,0462
2991,00;0,0462
2990,00;0,0461
2989,00;0,0461
2988,00;0,0461
2987,00;0,0461
2986,00;0,0461
2985,00;0,0460
2984,00;0,0460
2983,00;0,0460
2982,00;0,0459
2981,00;0,0459
2980,00;0,0459
2979,00;0,0458
2978,00;0,0458
2977,00;0,0458
2976,00;0,0457
2975,00;0,0457
2974,00;0,0456
2973,00;0,0456
2972,00;0,0456
2971,00;0,0455
2970,00;0,0454
2969,00;0,0453
2968,00;0,0452
2967,00;0,0451
2966,00;0,0450
2965,00;0,0450
2964,00;0,0449
2963,00;0,0448
2962,00;0,0448
2961,00;0,0447
2960,00;0,0447
2959,00;0,0447
2958,00;0,0446
2957,00;0,0446
2956,00;0,0446
2955,00;0,0446
2954,00;0,0446
2953,00;0,0446
2952,00;0,0447
2951,00;0,0447
2950,00;0,0447
2949,00;0,0447
2948,00;0,0447
2947,00;0,0446
2946,00;0,0446
2945,00;0,0446
2944,00;0,0446
2943,00;0,0445
2942,00;0,0444
2941,00;0,0443
2940,00;0,0443
2939,00;0,0442
2938,00;0,0441
2937,00;0,0440
2936,00;0,0439
2935,00;0,0438
2934,00;0,0437
2933,00;0,0436
2932,00;0,0435
2931,00;0,0434
2930,00;0,0433
2929,00;0,0433
2928,00;0,0433
2927,00;0,0433
2926,00;0,0433
2925,00;0,0434
2924,00;0,0435
2923,00;0,0436
2922,00;0,0437
2921,00;0,0439
2920,00;0,0440
2919,00;0,0442
2918,00;0,0443
2917,00;0,0445
2916,00;0,0446
2915,00;0,0447
2914,00;0,0448
2913,00;0,0449
2912,00;0,0450
2911,00;0,0450
2910,00;0,0451
2909,00;0,0452
2908,00;0,0452
2907,00;0,0452
2906,00;0,0453
2905,00;0,0454
2904,00;0,0455
2903,00;0,0455
2902,00;0,0456
2901,00;0,0456
2900,00;0,0456
2899,00;0,0456
2898,00;0,0456
2897,00;0,0456
2896,00;0,0457
2895,00;0,0457
2894,00;0,0458
2893,00;0,0458
2892,00;0,0459
2891,00;0,0459
2890,00;0,0459
2889,00;0,0459
2888,00;0,0460
2887,00;0,0460
2886,00;0,0460
2885,00;0,0460
2884,00;0,0460
2883,00;0,0460
2882,00;0,0459
2881,00;0,0459
2880,00;0,0458
2879,00;0,0458
2878,00;0,0458
2877,00;0,0457
2876,00;0,0457
2875,00;0,0456
2874,00;0,0456
2873,00;0,0455
2872,00;0,0455
2871,00;0,0456
2870,00;0,0456
2869,00;0,0456
2868,00;0,0456
2867,00;0,0455
2866,00;0,0455
2865,00;0,0455
2864,00;0,0455
2863,00;0,0455
2862,00;0,0454
2861,00;0,0453
2860,00;0,0452
2859,00;0,0452
2858,00;0,0451
2857,00;0,0451
2856,00;0,0451
2855,00;0,0451
2854,00;0,0452
2853,00;0,0453
2852,00;0,0454
2851,00;0,0455
2850,00;0,0456
2849,00;0,0457
2848,00;0,0458
2847,00;0,0459
2846,00;0,0460
2845,00;0,0461
2844,00;0,0462
2843,00;0,0462
2842,00;0,0463
2841,00;0,0463
2840,00;0,0463
2839,00;0,0463
2838,00;0,0464
2837,00;0,0464
2836,00;0,0465
2835,00;0,0465
2834,00;0,0465
2833,00;0,0466
2832,00;0,0466
2831,00;0,0466
2830,00;0,0466
2829,00;0,0466
2828,00;0,0466
2827,00;0,0466
2826,00;0,0466
2825,00;0,0466
2824,00;0,0466
2823,00;0,0466
2822,00;0,0467
2821,00;0,0467
2820,00;0,0467
2819,00;0,0467
2818,00;0,0467
2817,00;0,0467
2816,00;0,0467
2815,00;0,0467
2814,00;0,0467
2813,00;0,0467
2812,00;0,0466
2811,00;0,0466
2810,00;0,0466
2809,00;0,0466
2808,00;0,0466
2807,00;0,0466
2806,00;0,0466
2805,00;0,0467
2804,00;0,0467
2803,00;0,0467
2802,00;0,0467
2801,00;0,0467
2800,00;0,0467
2799,00;0,0467
2798,00;0,0467
2797,00;0,0467
2796,00;0,0467
2795,00;0,0467
2794,00;0,0467
2793,00;0,0467
2792,00;0,0467
2791,00;0,0467
2790,00;0,0467
2789,00;0,0467
2788,00;0,0467
2787,00;0,0467
2786,00;0,0467
2785,00;0,0467
2784,00;0,0467
2783,00;0,0467
2782,00;0,0467
2781,00;0,0467
2780,00;0,0467
2779,00;0,0467
2778,00;0,0467
2777,00;0,0467
2776,00;0,0467
2775,00;0,0467
2774,00;0,0467
2773,00;0,0467
2772,00;0,0467
2771,00;0,0467
2770,00;0,0467
2769,00;0,0467
2768,00;0,0467
2767,00;0,0467
2766,00;0,0467
2765,00;0,0467
2764,00;0,0467
2763,00;0,0467
2762,00;0,0467
2761,00;0,0467
2760,00;0,0467
2759,00;0,0467
2758,00;0,0467
2757,00;0,0467
2756,00;0,0467
2755,00;0,0467
2754,00;0,0467
2753,00;0,0467
2752,00;0,0467
2751,00;0,0467
2750,00;0,0467
2749,00;0,0467
2748,00;0,0467
2747,00;0,0467
2746,00;0,0467
2745,00;0,0467
2744,00;0,0467
2743,00;0,0467
2742,00;0,0467
2741,00;0,0467
2740,00;0,0467
2739,00;0,0467
2738,00;0,0467
2737,00;0,0467
2736,00;0,0467
2735,00;0,0467
2734,00;0,0467
2733,00;0,0467
2732,00;0,0467
2731,00;0,0467
2730,00;0,0467
2729,00;0,0467
2728,00;0,0467
2727,00;0,0467
2726,00;0,0467
2725,00;0,0468
2724,00;0,0468
2723,00;0,0468
2722,00;0,0468
2721,00;0,0468
2720,00;0,0468
2719,00;0,0468
2718,00;0,0468
2717,00;0,0468
2716,00;0,0468
2715,00;0,0468
2714,00;0,0468
2713,00;0,0468
2712,00;0,0468
2711,00;0,0468
2710,00;0,0468
2709,00;0,0468
2708,00;0,0468
2707,00;0,0468
2706,00;0,0468
2705,00;0,0468
2704,00;0,0468
2703,00;0,0468
2702,00;0,0468
2701,00;0,0468
2700,00;0,0468
2699,00;0,0468
2698,00;0,0468
2697,00;0,0468
2696,00;0,0468
2695,00;0,0468
2694,00;0,0468
2693,00;0,0468
2692,00;0,0468
2691,00;0,0468
2690,00;0,0468
2689,00;0,0468
2688,00;0,0468
2687,00;0,0468
2686,00;0,0468
2685,00;0,0468
2684,00;0,0468
2683,00;0,0468
2682,00;0,0468
2681,00;0,0468
2680,00;0,0468
2679,00;0,0468
2678,00;0,0468
2677,00;0,0468
2676,00;0,0468
2675,00;0,0468
2674,00;0,0468
2673,00;0,0468
2672,00;0,0468
2671,00;0,0468
2670,00;0,0468
2669,00;0,0468
2668,00;0,0468
2667,00;0,0468
2666,00;0,0468
2665,00;0,0469
2664,00;0,0469
2663,00;0,0469
2662,00;0,0469
2661,00;0,0470
2660,00;0,0470
2659,00;0,0470
2658,00;0,0470
2657,00;0,0470
2656,00;0,0470
2655,00;0,0470
2654,00;0,0470
2653,00;0,0470
2652,00;0,0470
2651,00;0,0470
2650,00;0,0470
2649,00;0,0470
2648,00;0,0470
2647,00;0,0470
2646,00;0,0470
2645,00;0,0470
2644,00;0,0470
2643,00;0,0470
2642,00;0,0470
2641,00;0,0470
2640,00;0,0470
2639,00;0,0470
2638,00;0,0470
2637,00;0,0469
2636,00;0,0469
2635,00;0,0469
2634,00;0,0469
2633,00;0,0469
2632,00;0,0469
2631,00;0,0469
2630,00;0,0469
2629,00;0,0469
2628,00;0,0468
2627,00;0,0468
2626,00;0,0468
2625,00;0,0468
2624,00;0,0468
2623,00;0,0468
2622,00;0,0467
2621,00;0,0467
2620,00;0,0467
2619,00;0,0467
2618,00;0,0467
2617,00;0,0467
2616,00;0,0467
2615,00;0,0467
2614,00;0,0467
2613,00;0,0467
2612,00;0,0466
2611,00;0,0466
2610,00;0,0466
2609,00;0,0466
2608,00;0,0466
2607,00;0,0466
2606,00;0,0466
2605,00;0,0466
2604,00;0,0466
2603,00;0,0466
2602,00;0,0466
2601,00;0,0465
2600,00;0,0465
2599,00;0,0465
2598,00;0,0465
2597,00;0,0465
2596,00;0,0465
2595,00;0,0465
2594,00;0,0465
2593,00;0,0465
2592,00;0,0465
2591,00;0,0465
2590,00;0,0464
2589,00;0,0464
2588,00;0,0464
2587,00;0,0464
2586,00;0,0464
2585,00;0,0464
2584,00;0,0464
2583,00;0,0464
2582,00;0,0464
2581,00;0,0464
2580,00;0,0464
2579,00;0,0464
2578,00;0,0464
2577,00;0,0464
2576,00;0,0464
2575,00;0,0464
2574,00;0,0464
2573,00;0,0464
2572,00;0,0464
2571,00;0,0463
2570,00;0,0463
2569,00;0,0463
2568,00;0,0463
2567,00;0,0463
2566,00;0,0463
2565,00;0,0463
2564,00;0,0463
2563,00;0,0463
2562,00;0,0463
2561,00;0,0463
2560,00;0,0463
2559,00;0,0463
2558,00;0,0463
2557,00;0,0463
2556,00;0,0463
2555,00;0,0463
2554,00;0,0463
2553,00;0,0463
2552,00;0,0463
2551,00;0,0463
2550,00;0,0463
2549,00;0,0463
2548,00;0,0463
2547,00;0,0463
2546,00;0,0463
2545,00;0,0463
2544,00;0,0463
2543,00;0,0462
2542,00;0,0462
2541,00;0,0462
2540,00;0,0462
2539,00;0,0462
2538,00;0,0462
2537,00;0,0462
2536,00;0,0462
2535,00;0,0462
2534,00;0,0462
2533,00;0,0462
2532,00;0,0462
2531,00;0,0462
2530,00;0,0462
2529,00;0,0462
2528,00;0,0462
2527,00;0,0462
2526,00;0,0462
2525,00;0,0462
2524,00;0,0462
2523,00;0,0462
2522,00;0,0462
2521,00;0,0462
2520,00;0,0462
2519,00;0,0462
2518,00;0,0462
2517,00;0,0462
2516,00;0,0462
2515,00;0,0462
2514,00;0,0462
2513,00;0,0462
2512,00;0,0462
2511,00;0,0462
2510,00;0,0462
2509,00;0,0462
2508,00;0,0462
2507,00;0,0462
2506,00;0,0462
2505,00;0,0462
2504,00;0,0462
2503,00;0,0462
2502,00;0,0462
2501,00;0,0462
2500,00;0,0462
2499,00;0,0462
2498,00;0,0462
2497,00;0,0462
2496,00;0,0462
2495,00;0,0462
2494,00;0,0462
2493,00;0,0462
2492,00;0,0461
2491,00;0,0461
2490,00;0,0462
2489,00;0,0462
2488,00;0,0462
2487,00;0,0462
2486,00;0,0462
2485,00;0,0462
2484,00;0,0462
2483,00;0,0462
2482,00;0,0462
2481,00;0,0462
2480,00;0,0462
2479,00;0,0462
2478,00;0,0462
2477,00;0,0462
2476,00;0,0462
2475,00;0,0462
2474,00;0,0462
2473,00;0,0462
2472,00;0,0462
2471,00;0,0462
2470,00;0,0462
2469,00;0,0462
2468,00;0,0462
2467,00;0,0461
2466,00;0,0461
2465,00;0,0461
2464,00;0,0462
2463,00;0,0462
2462,00;0,0462
2461,00;0,0462
2460,00;0,0462
2459,00;0,0462
2458,00;0,0462
2457,00;0,0462
2456,00;0,0462
2455,00;0,0462
2454,00;0,0462
2453,00;0,0462
2452,00;0,0462
2451,00;0,0462
2450,00;0,0462
2449,00;0,0462
2448,00;0,0462
2447,00;0,0462
2446,00;0,0462
2445,00;0,0462
2444,00;0,0462
2443,00;0,0462
2442,00;0,0461
2441,00;0,0461
2440,00;0,0461
2439,00;0,0462
2438,00;0,0462
2437,00;0,0462
2436,00;0,0461
2435,00;0,0461
2434,00;0,0461
2433,00;0,0461
2432,00;0,0461
2431,00;0,0461
2430,00;0,0461
2429,00;0,0461
2428,00;0,0461
2427,00;0,0461
2426,00;0,0461
2425,00;0,0461
2424,00;0,0461
2423,00;0,0461
2422,00;0,0461
2421,00;0,0461
2420,00;0,0461
2419,00;0,0461
2418,00;0,0462
2417,00;0,0461
2416,00;0,0461
2415,00;0,0461
2414,00;0,0462
2413,00;0,0462
2412,00;0,0462
2411,00;0,0462
2410,00;0,0461
2409,00;0,0461
2408,00;0,0461
2407,00;0,0461
2406,00;0,0461
2405,00;0,0461
2404,00;0,0460
2403,00;0,0460
2402,00;0,0460
2401,00;0,0460
2400,00;0,0460
2399,00;0,0460
2398,00;0,0461
2397,00;0,0461
2396,00;0,0461
2395,00;0,0460
2394,00;0,0460
2393,00;0,0460
2392,00;0,0460
2391,00;0,0461
2390,00;0,0461
2389,00;0,0461
2388,00;0,0461
2387,00;0,0461
2386,00;0,0461
2385,00;0,0461
2384,00;0,0461
2383,00;0,0461
2382,00;0,0461
2381,00;0,0461
2380,00;0,0461
2379,00;0,0461
2378,00;0,0461
2377,00;0,0461
2376,00;0,0462
2375,00;0,0462
2374,00;0,0462
2373,00;0,0462
2372,00;0,0462
2371,00;0,0462
2370,00;0,0462
2369,00;0,0462
2368,00;0,0462
2367,00;0,0462
2366,00;0,0463
2365,00;0,0463
2364,00;0,0463
2363,00;0,0463
2362,00;0,0463
2361,00;0,0463
2360,00;0,0464
2359,00;0,0464
2358,00;0,0464
2357,00;0,0464
2356,00;0,0465
2355,00;0,0465
2354,00;0,0465
2353,00;0,0465
2352,00;0,0465
2351,00;0,0465
2350,00;0,0465
2349,00;0,0466
2348,00;0,0466
2347,00;0,0466
2346,00;0,0466
2345,00;0,0466
2344,00;0,0467
2343,00;0,0467
2342,00;0,0467
2341,00;0,0468
2340,00;0,0468
2339,00;0,0468
2338,00;0,0468
2337,00;0,0468
2336,00;0,0468
2335,00;0,0468
2334,00;0,0468
2333,00;0,0468
2332,00;0,0468
2331,00;0,0468
2330,00;0,0468
2329,00;0,0469
2328,00;0,0470
2327,00;0,0471
2326,00;0,0473
2325,00;0,0475
2324,00;0,0476
2323,00;0,0476
2322,00;0,0475
2321,00;0,0475
2320,00;0,0474
2319,00;0,0473
2318,00;0,0473
2317,00;0,0473
2316,00;0,0473
2315,00;0,0473
2314,00;0,0472
2313,00;0,0472
2312,00;0,0472
2311,00;0,0472
2310,00;0,0472
2309,00;0,0472
2308,00;0,0471
2307,00;0,0471
2306,00;0,0471
2305,00;0,0471
2304,00;0,0471
2303,00;0,0471
2302,00;0,0471
2301,00;0,0471
2300,00;0,0471
2299,00;0,0471
2298,00;0,0471
2297,00;0,0471
2296,00;0,0472
2295,00;0,0472
2294,00;0,0472
2293,00;0,0472
2292,00;0,0472
2291,00;0,0472
2290,00;0,0472
2289,00;0,0472
2288,00;0,0472
2287,00;0,0472
2286,00;0,0472
2285,00;0,0473
2284,00;0,0473
2283,00;0,0473
2282,00;0,0473
2281,00;0,0472
2280,00;0,0471
2279,00;0,0470
2278,00;0,0470
2277,00;0,0470
2276,00;0,0470
2275,00;0,0469
2274,00;0,0469
2273,00;0,0469
2272,00;0,0469
2271,00;0,0469
2270,00;0,0469
2269,00;0,0468
2268,00;0,0468
2267,00;0,0467
2266,00;0,0467
2265,00;0,0467
2264,00;0,0467
2263,00;0,0468
2262,00;0,0468
2261,00;0,0468
2260,00;0,0468
2259,00;0,0468
2258,00;0,0468
2257,00;0,0468
2256,00;0,0468
2255,00;0,0467
2254,00;0,0467
2253,00;0,0467
2252,00;0,0467
2251,00;0,0467
2250,00;0,0467
2249,00;0,0466
2248,00;0,0466
2247,00;0,0466
2246,00;0,0466
2245,00;0,0466
2244,00;0,0466
2243,00;0,0466
2242,00;0,0466
2241,00;0,0467
2240,00;0,0467
2239,00;0,0467
2238,00;0,0466
2237,00;0,0466
2236,00;0,0466
2235,00;0,0466
2234,00;0,0466
2233,00;0,0466
2232,00;0,0466
2231,00;0,0466
2230,00;0,0466
2229,00;0,0466
2228,00;0,0466
2227,00;0,0466
2226,00;0,0466
2225,00;0,0466
2224,00;0,0466
2223,00;0,0466
2222,00;0,0466
2221,00;0,0466
2220,00;0,0466
2219,00;0,0465
2218,00;0,0465
2217,00;0,0465
2216,00;0,0465
2215,00;0,0465
2214,00;0,0465
2213,00;0,0465
2212,00;0,0465
2211,00;0,0465
2210,00;0,0465
2209,00;0,0465
2208,00;0,0465
2207,00;0,0465
2206,00;0,0464
2205,00;0,0464
2204,00;0,0464
2203,00;0,0464
2202,00;0,0464
2201,00;0,0464
2200,00;0,0464
2199,00;0,0464
2198,00;0,0464
2197,00;0,0464
2196,00;0,0464
2195,00;0,0463
2194,00;0,0463
2193,00;0,0464
2192,00;0,0464
2191,00;0,0463
2190,00;0,0463
2189,00;0,0463
2188,00;0,0463
2187,00;0,0463
2186,00;0,0463
2185,00;0,0464
2184,00;0,0463
2183,00;0,0463
2182,00;0,0462
2181,00;0,0461
2180,00;0,0461
2179,00;0,0462
2178,00;0,0462
2177,00;0,0461
2176,00;0,0461
2175,00;0,0460
2174,00;0,0460
2173,00;0,0461
2172,00;0,0461
2171,00;0,0461
2170,00;0,0461
2169,00;0,0461
2168,00;0,0462
2167,00;0,0462
2166,00;0,0463
2165,00;0,0462
2164,00;0,0462
2163,00;0,0462
2162,00;0,0462
2161,00;0,0461
2160,00;0,0459
2159,00;0,0455
2158,00;0,0453
2157,00;0,0452
2156,00;0,0452
2155,00;0,0452
2154,00;0,0453
2153,00;0,0452
2152,00;0,0451
2151,00;0,0451
2150,00;0,0451
2149,00;0,0451
2148,00;0,0452
2147,00;0,0452
2146,00;0,0451
2145,00;0,0451
2144,00;0,0451
2143,00;0,0451
2142,00;0,0452
2141,00;0,0453
2140,00;0,0454
2139,00;0,0454
2138,00;0,0453
2137,00;0,0453
2136,00;0,0453
2135,00;0,0452
2134,00;0,0451
2133,00;0,0451
2132,00;0,0451
2131,00;0,0451
2130,00;0,0451
2129,00;0,0451
2128,00;0,0452
2127,00;0,0453
2126,00;0,0454
2125,00;0,0455
2124,00;0,0455
2123,00;0,0456
2122,00;0,0456
2121,00;0,0456
2120,00;0,0456
2119,00;0,0457
2118,00;0,0458
2117,00;0,0459
2116,00;0,0459
2115,00;0,0459
2114,00;0,0459
2113,00;0,0459
2112,00;0,0459
2111,00;0,0459
2110,00;0,0459
2109,00;0,0459
2108,00;0,0459
2107,00;0,0459
2106,00;0,0459
2105,00;0,0459
2104,00;0,0459
2103,00;0,0460
2102,00;0,0460
2101,00;0,0461
2100,00;0,0461
2099,00;0,0461
2098,00;0,0462
2097,00;0,0462
2096,00;0,0461
2095,00;0,0461
2094,00;0,0460
2093,00;0,0460
2092,00;0,0460
2091,00;0,0461
2090,00;0,0462
2089,00;0,0462
2088,00;0,0463
2087,00;0,0463
2086,00;0,0463
2085,00;0,0464
2084,00;0,0464
2083,00;0,0464
2082,00;0,0464
2081,00;0,0464
2080,00;0,0464
2079,00;0,0464
2078,00;0,0464
2077,00;0,0464
2076,00;0,0465
2075,00;0,0465
2074,00;0,0465
2073,00;0,0465
2072,00;0,0464
2071,00;0,0464
2070,00;0,0464
2069,00;0,0464
2068,00;0,0464
2067,00;0,0464
2066,00;0,0464
2065,00;0,0464
2064,00;0,0464
2063,00;0,0464
2062,00;0,0464
2061,00;0,0465
2060,00;0,0465
2059,00;0,0465
2058,00;0,0465
2057,00;0,0465
2056,00;0,0465
2055,00;0,0465
2054,00;0,0465
2053,00;0,0465
2052,00;0,0466
2051,00;0,0466
2050,00;0,0466
2049,00;0,0465
2048,00;0,0465
2047,00;0,0464
2046,00;0,0464
2045,00;0,0464
2044,00;0,0465
2043,00;0,0465
2042,00;0,0464
2041,00;0,0464
2040,00;0,0463
2039,00;0,0462
2038,00;0,0461
2037,00;0,0461
2036,00;0,0461
2035,00;0,0460
2034,00;0,0460
2033,00;0,0460
2032,00;0,0460
2031,00;0,0460
2030,00;0,0460
2029,00;0,0460
2028,00;0,0460
2027,00;0,0460
2026,00;0,0460
2025,00;0,0460
2024,00;0,0460
2023,00;0,0460
2022,00;0,0459
2021,00;0,0459
2020,00;0,0459
2019,00;0,0460
2018,00;0,0460
2017,00;0,0461
2016,00;0,0462
2015,00;0,0461
2014,00;0,0461
2013,00;0,0460
2012,00;0,0459
2011,00;0,0458
2010,00;0,0458
2009,00;0,0458
2008,00;0,0459
2007,00;0,0458
2006,00;0,0458
2005,00;0,0457
2004,00;0,0456
2003,00;0,0456
2002,00;0,0457
2001,00;0,0457
2000,00;0,0458
1999,00;0,0458
1998,00;0,0459
1997,00;0,0459
1996,00;0,0460
1995,00;0,0460
1994,00;0,0461
1993,00;0,0461
1992,00;0,0460
1991,00;0,0460
1990,00;0,0460
1989,00;0,0460
1988,00;0,0461
1987,00;0,0462
1986,00;0,0463
1985,00;0,0463
1984,00;0,0463
1983,00;0,0463
1982,00;0,0463
1981,00;0,0464
1980,00;0,0464
1979,00;0,0463
1978,00;0,0460
1977,00;0,0457
1976,00;0,0455
1975,00;0,0454
1974,00;0,0454
1973,00;0,0455
1972,00;0,0456
1971,00;0,0456
1970,00;0,0456
1969,00;0,0456
1968,00;0,0456
1967,00;0,0456
1966,00;0,0456
1965,00;0,0456
1964,00;0,0455
1963,00;0,0454
1962,00;0,0453
1961,00;0,0452
1960,00;0,0451
1959,00;0,0450
1958,00;0,0450
1957,00;0,0450
1956,00;0,0450
1955,00;0,0451
1954,00;0,0452
1953,00;0,0452
1952,00;0,0453
1951,00;0,0453
1950,00;0,0453
1949,00;0,0453
1948,00;0,0454
1947,00;0,0454
1946,00;0,0454
1945,00;0,0454
1944,00;0,0454
1943,00;0,0454
1942,00;0,0453
1941,00;0,0452
1940,00;0,0452
1939,00;0,0452
1938,00;0,0452
1937,00;0,0453
1936,00;0,0453
1935,00;0,0453
1934,00;0,0453
1933,00;0,0454
1932,00;0,0454
1931,00;0,0454
1930,00;0,0454
1929,00;0,0454
1928,00;0,0454
1927,00;0,0454
1926,00;0,0454
1925,00;0,0454
1924,00;0,0455
1923,00;0,0455
1922,00;0,0455
1921,00;0,0455
1920,00;0,0455
1919,00;0,0455
1918,00;0,0455
1917,00;0,0455
1916,00;0,0455
1915,00;0,0456
1914,00;0,0456
1913,00;0,0456
1912,00;0,0456
1911,00;0,0456
1910,00;0,0456
1909,00;0,0456
1908,00;0,0456
1907,00;0,0456
1906,00;0,0456
1905,00;0,0456
1904,00;0,0456
1903,00;0,0457
1902,00;0,0457
1901,00;0,0457
1900,00;0,0457
1899,00;0,0457
1898,00;0,0457
1897,00;0,0457
1896,00;0,0457
1895,00;0,0457
1894,00;0,0457
1893,00;0,0457
1892,00;0,0457
1891,00;0,0457
1890,00;0,0457
1889,00;0,0457
1888,00;0,0457
1887,00;0,0457
1886,00;0,0457
1885,00;0,0457
1884,00;0,0457
1883,00;0,0457
1882,00;0,0457
1881,00;0,0457
1880,00;0,0457
1879,00;0,0457
1878,00;0,0457
1877,00;0,0457
1876,00;0,0457
1875,00;0,0457
1874,00;0,0457
1873,00;0,0457
1872,00;0,0457
1871,00;0,0457
1870,00;0,0457
1869,00;0,0457
1868,00;0,0457
1867,00;0,0457
1866,00;0,0457
1865,00;0,0457
1864,00;0,0457
1863,00;0,0457
1862,00;0,0458
1861,00;0,0458
1860,00;0,0458
1859,00;0,0458
1858,00;0,0458
1857,00;0,0458
1856,00;0,0458
1855,00;0,0458
1854,00;0,0458
1853,00;0,0458
1852,00;0,0458
1851,00;0,0458
1850,00;0,0458
1849,00;0,0458
1848,00;0,0458
1847,00;0,0458
1846,00;0,0458
1845,00;0,0458
1844,00;0,0458
1843,00;0,0458
1842,00;0,0458
1841,00;0,0458
1840,00;0,0458
1839,00;0,0458
1838,00;0,0458
1837,00;0,0458
1836,00;0,0458
1835,00;0,0458
1834,00;0,0458
1833,00;0,0458
1832,00;0,0458
1831,00;0,0458
1830,00;0,0458
1829,00;0,0458
1828,00;0,0458
1827,00;0,0458
1826,00;0,0458
1825,00;0,0458
1824,00;0,0458
1823,00;0,0458
1822,00;0,0458
1821,00;0,0458
1820,00;0,0458
1819,00;0,0458
1818,00;0,0458
1817,00;0,0458
1816,00;0,0458
1815,00;0,0458
1814,00;0,0458
1813,00;0,0458
1812,00;0,0458
1811,00;0,0458
1810,00;0,0459
1809,00;0,0459
1808,00;0,0458
1807,00;0,0458
1806,00;0,0458
1805,00;0,0458
1804,00;0,0458
1803,00;0,0458
1802,00;0,0458
1801,00;0,0458
1800,00;0,0458
1799,00;0,0459
1798,00;0,0459
1797,00;0,0459
1796,00;0,0458
1795,00;0,0458
1794,00;0,0458
1793,00;0,0458
1792,00;0,0458
1791,00;0,0459
1790,00;0,0459
1789,00;0,0459
1788,00;0,0459
1787,00;0,0459
1786,00;0,0459
1785,00;0,0459
1784,00;0,0459
1783,00;0,0459
1782,00;0,0459
1781,00;0,0460
1780,00;0,0460
1779,00;0,0459
1778,00;0,0459
1777,00;0,0459
1776,00;0,0459
1775,00;0,0458
1774,00;0,0458
1773,00;0,0458
1772,00;0,0459
1771,00;0,0459
1770,00;0,0458
1769,00;0,0458
1768,00;0,0458
1767,00;0,0458
1766,00;0,0458
1765,00;0,0458
1764,00;0,0458
1763,00;0,0458
1762,00;0,0458
1761,00;0,0458
1760,00;0,0457
1759,00;0,0456
1758,00;0,0455
1757,00;0,0454
1756,00;0,0453
1755,00;0,0452
1754,00;0,0451
1753,00;0,0450
1752,00;0,0449
1751,00;0,0448
1750,00;0,0447
1749,00;0,0445
1748,00;0,0443
1747,00;0,0441
1746,00;0,0439
1745,00;0,0438
1744,00;0,0436
1743,00;0,0435
1742,00;0,0434
1741,00;0,0434
1740,00;0,0433
1739,00;0,0433
1738,00;0,0433
1737,00;0,0433
1736,00;0,0433
1735,00;0,0434
1734,00;0,0436
1733,00;0,0437
1732,00;0,0438
1731,00;0,0439
1730,00;0,0440
1729,00;0,0442
1728,00;0,0444
1727,00;0,0446
1726,00;0,0447
1725,00;0,0448
1724,00;0,0449
1723,00;0,0451
1722,00;0,0452
1721,00;0,0453
1720,00;0,0454
1719,00;0,0454
1718,00;0,0455
1717,00;0,0456
1716,00;0,0458
1715,00;0,0459
1714,00;0,0460
1713,00;0,0461
1712,00;0,0462
1711,00;0,0462
1710,00;0,0463
1709,00;0,0463
1708,00;0,0464
1707,00;0,0464
1706,00;0,0465
1705,00;0,0466
1704,00;0,0467
1703,00;0,0468
1702,00;0,0468
1701,00;0,0468
1700,00;0,0468
1699,00;0,0468
1698,00;0,0469
1697,00;0,0470
1696,00;0,0471
1695,00;0,0472
1694,00;0,0472
1693,00;0,0472
1692,00;0,0473
1691,00;0,0473
1690,00;0,0474
1689,00;0,0474
1688,00;0,0474
1687,00;0,0474
1686,00;0,0474
1685,00;0,0474
1684,00;0,0474
1683,00;0,0475
1682,00;0,0475
1681,00;0,0475
1680,00;0,0475
1679,00;0,0476
1678,00;0,0476
1677,00;0,0477
1676,00;0,0477
1675,00;0,0477
1674,00;0,0477
1673,00;0,0477
1672,00;0,0477
1671,00;0,0477
1670,00;0,0478
1669,00;0,0478
1668,00;0,0479
1667,00;0,0479
1666,00;0,0479
1665,00;0,0479
1664,00;0,0480
1663,00;0,0480
1662,00;0,0480
1661,00;0,0481
1660,00;0,0482
1659,00;0,0482
1658,00;0,0482
1657,00;0,0482
1656,00;0,0482
1655,00;0,0483
1654,00;0,0483
1653,00;0,0484
1652,00;0,0485
1651,00;0,0485
1650,00;0,0485
1649,00;0,0485
1648,00;0,0486
1647,00;0,0486
1646,00;0,0487
1645,00;0,0487
1644,00;0,0488
1643,00;0,0488
1642,00;0,0488
1641,00;0,0489
1640,00;0,0489
1639,00;0,0489
1638,00;0,0490
1637,00;0,0490
1636,00;0,0490
1635,00;0,0491
1634,00;0,0491
1633,00;0,0491
1632,00;0,0492
1631,00;0,0492
1630,00;0,0493
1629,00;0,0493
1628,00;0,0493
1627,00;0,0494
1626,00;0,0494
1625,00;0,0494
1624,00;0,0495
1623,00;0,0495
1622,00;0,0496
1621,00;0,0496
1620,00;0,0497
1619,00;0,0497
1618,00;0,0498
1617,00;0,0498
1616,00;0,0499
1615,00;0,0499
1614,00;0,0500
1613,00;0,0500
1612,00;0,0500
1611,00;0,0501
1610,00;0,0502
1609,00;0,0502
1608,00;0,0502
1607,00;0,0503
1606,00;0,0503
1605,00;0,0504
1604,00;0,0504
1603,00;0,0505
1602,00;0,0505
1601,00;0,0506
1600,00;0,0506
1599,00;0,0507
1598,00;0,0507
1597,00;0,0508
1596,00;0,0508
1595,00;0,0508
1594,00;0,0509
1593,00;0,0509
1592,00;0,0510
1591,00;0,0510
1590,00;0,0510
1589,00;0,0510
1588,00;0,0511
1587,00;0,0511
1586,00;0,0512
1585,00;0,0512
1584,00;0,0512
1583,00;0,0513
1582,00;0,0513
1581,00;0,0513
1580,00;0,0514
1579,00;0,0514
1578,00;0,0514
1577,00;0,0514
1576,00;0,0515
1575,00;0,0515
1574,00;0,0515
1573,00;0,0515
1572,00;0,0515
1571,00;0,0516
1570,00;0,0516
1569,00;0,0516
1568,00;0,0516
1567,00;0,0516
1566,00;0,0517
1565,00;0,0517
1564,00;0,0517
1563,00;0,0517
1562,00;0,0518
1561,00;0,0518
1560,00;0,0518
1559,00;0,0519
1558,00;0,0519
1557,00;0,0518
1556,00;0,0518
1555,00;0,0517
1554,00;0,0517
1553,00;0,0517
1552,00;0,0517
1551,00;0,0517
1550,00;0,0517
1549,00;0,0517
1548,00;0,0517
1547,00;0,0517
1546,00;0,0517
1545,00;0,0516
1544,00;0,0515
1543,00;0,0515
1542,00;0,0515
1541,00;0,0514
1540,00;0,0514
1539,00;0,0514
1538,00;0,0514
1537,00;0,0513
1536,00;0,0513
1535,00;0,0513
1534,00;0,0513
1533,00;0,0512
1532,00;0,0512
1531,00;0,0512
1530,00;0,0512
1529,00;0,0512
1528,00;0,0512
1527,00;0,0511
1526,00;0,0511
1525,00;0,0511
1524,00;0,0511
1523,00;0,0510
1522,00;0,0510
1521,00;0,0510
1520,00;0,0510
1519,00;0,0509
1518,00;0,0509
1517,00;0,0509
1516,00;0,0508
1515,00;0,0508
1514,00;0,0508
1513,00;0,0508
1512,00;0,0508
1511,00;0,0507
1510,00;0,0507
1509,00;0,0507
1508,00;0,0506
1507,00;0,0506
1506,00;0,0506
1505,00;0,0506
1504,00;0,0506
1503,00;0,0505
1502,00;0,0505
1501,00;0,0505
1500,00;0,0505
1499,00;0,0505
1498,00;0,0504
1497,00;0,0504
1496,00;0,0503
1495,00;0,0503
1494,00;0,0504
1493,00;0,0504
1492,00;0,0503
1491,00;0,0503
1490,00;0,0502
1489,00;0,0502
1488,00;0,0502
1487,00;0,0502
1486,00;0,0502
1485,00;0,0502
1484,00;0,0502
1483,00;0,0502
1482,00;0,0502
1481,00;0,0502
1480,00;0,0501
1479,00;0,0501
1478,00;0,0500
1477,00;0,0500
1476,00;0,0499
1475,00;0,0499
1474,00;0,0499
1473,00;0,0498
1472,00;0,0498
1471,00;0,0498
1470,00;0,0498
1469,00;0,0498
1468,00;0,0497
1467,00;0,0497
1466,00;0,0497
1465,00;0,0498
1464,00;0,0498
1463,00;0,0498
1462,00;0,0498
1461,00;0,0498
1460,00;0,0498
1459,00;0,0498
1458,00;0,0499
1457,00;0,0499
1456,00;0,0500
1455,00;0,0500
1454,00;0,0501
1453,00;0,0502
1452,00;0,0503
1451,00;0,0504
1450,00;0,0504
1449,00;0,0504
1448,00;0,0504
1447,00;0,0505
1446,00;0,0505
1445,00;0,0505
1444,00;0,0506
1443,00;0,0506
1442,00;0,0507
1441,00;0,0507
1440,00;0,0507
1439,00;0,0507
1438,00;0,0508
1437,00;0,0508
1436,00;0,0508
1435,00;0,0508
1434,00;0,0508
1433,00;0,0508
1432,00;0,0509
1431,00;0,0509
1430,00;0,0509
1429,00;0,0510
1428,00;0,0510
1427,00;0,0510
1426,00;0,0510
1425,00;0,0510
1424,00;0,0510
1423,00;0,0510
1422,00;0,0510
1421,00;0,0511
1420,00;0,0511
1419,00;0,0511
1418,00;0,0511
1417,00;0,0512
1416,00;0,0512
1415,00;0,0512
1414,00;0,0512
1413,00;0,0513
1412,00;0,0514
1411,00;0,0514
1410,00;0,0514
1409,00;0,0515
1408,00;0,0515
1407,00;0,0515
1406,00;0,0515
1405,00;0,0515
1404,00;0,0515
1403,00;0,0515
1402,00;0,0515
1401,00;0,0515
1400,00;0,0515
1399,00;0,0515
1398,00;0,0515
1397,00;0,0516
1396,00;0,0516
1395,00;0,0516
1394,00;0,0516
1393,00;0,0516
1392,00;0,0516
1391,00;0,0516
1390,00;0,0516
1389,00;0,0516
1388,00;0,0516
1387,00;0,0516
1386,00;0,0516
1385,00;0,0517
1384,00;0,0517
1383,00;0,0517
1382,00;0,0517
1381,00;0,0517
1380,00;0,0517
1379,00;0,0518
1378,00;0,0518
1377,00;0,0518
1376,00;0,0518
1375,00;0,0518
1374,00;0,0518
1373,00;0,0518
1372,00;0,0518
1371,00;0,0518
1370,00;0,0518
1369,00;0,0518
1368,00;0,0518
1367,00;0,0518
1366,00;0,0518
1365,00;0,0518
1364,00;0,0518
1363,00;0,0518
1362,00;0,0518
1361,00;0,0518
1360,00;0,0518
1359,00;0,0518
1358,00;0,0518
1357,00;0,0518
1356,00;0,0518
1355,00;0,0518
1354,00;0,0517
1353,00;0,0517
1352,00;0,0517
1351,00;0,0517
1350,00;0,0518
1349,00;0,0518
1348,00;0,0518
1347,00;0,0518
1346,00;0,0518
1345,00;0,0518
1344,00;0,0518
1343,00;0,0518
1342,00;0,0518
1341,00;0,0518
1340,00;0,0518
1339,00;0,0518
1338,00;0,0518
1337,00;0,0518
1336,00;0,0518
1335,00;0,0518
1334,00;0,0518
1333,00;0,0518
1332,00;0,0518
1331,00;0,0519
1330,00;0,0519
1329,00;0,0518
1328,00;0,0518
1327,00;0,0518
1326,00;0,0518
1325,00;0,0518
1324,00;0,0518
1323,00;0,0518
1322,00;0,0517
1321,00;0,0517
1320,00;0,0516
1319,00;0,0516
1318,00;0,0516
1317,00;0,0516
1316,00;0,0516
1315,00;0,0516
1314,00;0,0515
1313,00;0,0515
1312,00;0,0515
1311,00;0,0515
1310,00;0,0515
1309,00;0,0515
1308,00;0,0515
1307,00;0,0515
1306,00;0,0515
1305,00;0,0515
1304,00;0,0515
1303,00;0,0515
1302,00;0,0514
1301,00;0,0514
1300,00;0,0514
1299,00;0,0514
1298,00;0,0513
1297,00;0,0513
1296,00;0,0513
1295,00;0,0513
1294,00;0,0512
1293,00;0,0512
1292,00;0,0512
1291,00;0,0512
1290,00;0,0512
1289,00;0,0512
1288,00;0,0512
1287,00;0,0511
1286,00;0,0511
1285,00;0,0511
1284,00;0,0511
1283,00;0,0511
1282,00;0,0511
1281,00;0,0510
1280,00;0,0510
1279,00;0,0510
1278,00;0,0510
1277,00;0,0510
1276,00;0,0510
1275,00;0,0510
1274,00;0,0509
1273,00;0,0509
1272,00;0,0509
1271,00;0,0509
1270,00;0,0509
1269,00;0,0509
1268,00;0,0509
1267,00;0,0509
1266,00;0,0510
1265,00;0,0510
1264,00;0,0510
1263,00;0,0510
1262,00;0,0509
1261,00;0,0509
1260,00;0,0510
1259,00;0,0510
1258,00;0,0510
1257,00;0,0510
1256,00;0,0510
1255,00;0,0510
1254,00;0,0510
1253,00;0,0510
1252,00;0,0511
1251,00;0,0511
1250,00;0,0511
1249,00;0,0511
1248,00;0,0511
1247,00;0,0511
1246,00;0,0511
1245,00;0,0511
1244,00;0,0511
1243,00;0,0511
1242,00;0,0511
1241,00;0,0511
1240,00;0,0511
1239,00;0,0511
1238,00;0,0511
1237,00;0,0511
1236,00;0,0512
1235,00;0,0512
1234,00;0,0512
1233,00;0,0512
1232,00;0,0512
1231,00;0,0512
1230,00;0,0512
1229,00;0,0512
1228,00;0,0512
1227,00;0,0512
1226,00;0,0512
1225,00;0,0512
1224,00;0,0512
1223,00;0,0512
1222,00;0,0511
1221,00;0,0511
1220,00;0,0511
1219,00;0,0510
1218,00;0,0510
1217,00;0,0509
1216,00;0,0509
1215,00;0,0509
1214,00;0,0509
1213,00;0,0509
1212,00;0,0509
1211,00;0,0509
1210,00;0,0509
1209,00;0,0509
1208,00;0,0509
1207,00;0,0509
1206,00;0,0509
1205,00;0,0509
1204,00;0,0508
1203,00;0,0508
1202,00;0,0508
1201,00;0,0508
1200,00;0,0508
1199,00;0,0508
1198,00;0,0508
1197,00;0,0507
1196,00;0,0507
1195,00;0,0507
1194,00;0,0506
1193,00;0,0507
1192,00;0,0507
1191,00;0,0508
1190,00;0,0508
1189,00;0,0509
1188,00;0,0510
1187,00;0,0510
1186,00;0,0511
1185,00;0,0511
1184,00;0,0511
1183,00;0,0512
1182,00;0,0513
1181,00;0,0514
1180,00;0,0516
1179,00;0,0517
1178,00;0,0518
1177,00;0,0519
1176,00;0,0521
1175,00;0,0522
1174,00;0,0523
1173,00;0,0524
1172,00;0,0525
1171,00;0,0525
1170,00;0,0526
1169,00;0,0528
1168,00;0,0529
1167,00;0,0530
1166,00;0,0531
1165,00;0,0532
1164,00;0,0533
1163,00;0,0534
1162,00;0,0535
1161,00;0,0537
1160,00;0,0537
1159,00;0,0538
1158,00;0,0539
1157,00;0,0540
1156,00;0,0540
1155,00;0,0541
1154,00;0,0541
1153,00;0,0542
1152,00;0,0542
1151,00;0,0543
1150,00;0,0543
1149,00;0,0543
1148,00;0,0544
1147,00;0,0545
1146,00;0,0545
1145,00;0,0546
1144,00;0,0547
1143,00;0,0547
1142,00;0,0547
1141,00;0,0548
1140,00;0,0548
1139,00;0,0549
1138,00;0,0550
1137,00;0,0550
1136,00;0,0551
1135,00;0,0552
1134,00;0,0553
1133,00;0,0554
1132,00;0,0553
1131,00;0,0553
1130,00;0,0553
1129,00;0,0553
1128,00;0,0553
1127,00;0,0553
1126,00;0,0554
1125,00;0,0554
1124,00;0,0555
1123,00;0,0555
1122,00;0,0556
1121,00;0,0556
1120,00;0,0556
1119,00;0,0557
1118,00;0,0558
1117,00;0,0558
1116,00;0,0558
1115,00;0,0558
1114,00;0,0558
1113,00;0,0559
1112,00;0,0559
1111,00;0,0558
1110,00;0,0558
1109,00;0,0558
1108,00;0,0557
1107,00;0,0556
1106,00;0,0555
1105,00;0,0554
1104,00;0,0553
1103,00;0,0552
1102,00;0,0551
1101,00;0,0549
1100,00;0,0548
1099,00;0,0548
1098,00;0,0547
1097,00;0,0546
1096,00;0,0546
1095,00;0,0546
1094,00;0,0545
1093,00;0,0544
1092,00;0,0543
1091,00;0,0543
1090,00;0,0542
1089,00;0,0542
1088,00;0,0542
1087,00;0,0541
1086,00;0,0541
1085,00;0,0541
1084,00;0,0541
1083,00;0,0541
1082,00;0,0541
1081,00;0,0540
1080,00;0,0540
1079,00;0,0539
1078,00;0,0538
1077,00;0,0538
1076,00;0,0538
1075,00;0,0538
1074,00;0,0538
1073,00;0,0538
1072,00;0,0538
1071,00;0,0538
1070,00;0,0538
1069,00;0,0538
1068,00;0,0538
1067,00;0,0538
1066,00;0,0538
1065,00;0,0538
1064,00;0,0537
1063,00;0,0537
1062,00;0,0536
1061,00;0,0536
1060,00;0,0536
1059,00;0,0536
1058,00;0,0536
1057,00;0,0536
1056,00;0,0536
1055,00;0,0536
1054,00;0,0536
1053,00;0,0535
1052,00;0,0535
1051,00;0,0535
1050,00;0,0534
1049,00;0,0534
1048,00;0,0534
1047,00;0,0533
1046,00;0,0533
1045,00;0,0532
1044,00;0,0532
1043,00;0,0532
1042,00;0,0532
1041,00;0,0531
1040,00;0,0530
1039,00;0,0530
1038,00;0,0529
1037,00;0,0529
1036,00;0,0529
1035,00;0,0529
1034,00;0,0528
1033,00;0,0528
1032,00;0,0527
1031,00;0,0526
1030,00;0,0526
1029,00;0,0526
1028,00;0,0525
1027,00;0,0525
1026,00;0,0524
1025,00;0,0524
1024,00;0,0523
1023,00;0,0522
1022,00;0,0522
1021,00;0,0521
1020,00;0,0521
1019,00;0,0521
1018,00;0,0520
1017,00;0,0520
1016,00;0,0519
1015,00;0,0519
1014,00;0,0518
1013,00;0,0518
1012,00;0,0517
1011,00;0,0516
1010,00;0,0516
1009,00;0,0515
1008,00;0,0515
1007,00;0,0514
1006,00;0,0514
1005,00;0,0513
1004,00;0,0513
1003,00;0,0512
1002,00;0,0512
1001,00;0,0511
1000,00;0,0511
999,00;0,0510
998,00;0,0510
997,00;0,0509
996,00;0,0509
995,00;0,0508
994,00;0,0508
993,00;0,0507
992,00;0,0507
991,00;0,0506
990,00;0,0506
989,00;0,0505
988,00;0,0505
987,00;0,0504
986,00;0,0504
985,00;0,0503
984,00;0,0503
983,00;0,0502
982,00;0,0502
981,00;0,0501
980,00;0,0501
979,00;0,0500
978,00;0,0500
977,00;0,0500
976,00;0,0499
975,00;0,0499
974,00;0,0498
973,00;0,0498
972,00;0,0497
971,00;0,0497
970,00;0,0496
969,00;0,0496
968,00;0,0496
967,00;0,0495
966,00;0,0495
965,00;0,0494
964,00;0,0494
963,00;0,0493
962,00;0,0493
961,00;0,0492
960,00;0,0492
959,00;0,0492
958,00;0,0491
957,00;0,0491
956,00;0,0491
955,00;0,0490
954,00;0,0490
953,00;0,0490
952,00;0,0489
951,00;0,0489
950,00;0,0489
949,00;0,0488
948,00;0,0488
947,00;0,0488
946,00;0,0487
945,00;0,0487
944,00;0,0486
943,00;0,0486
942,00;0,0485
941,00;0,0485
940,00;0,0484
939,00;0,0484
938,00;0,0484
937,00;0,0484
936,00;0,0484
935,00;0,0483
934,00;0,0483
933,00;0,0483
932,00;0,0482
931,00;0,0482
930,00;0,0482
929,00;0,0481
928,00;0,0481
927,00;0,0481
926,00;0,0480
925,00;0,0480
924,00;0,0480
923,00;0,0480
922,00;0,0479
921,00;0,0479
920,00;0,0479
919,00;0,0479
918,00;0,0479
917,00;0,0479
916,00;0,0478
915,00;0,0478
914,00;0,0478
913,00;0,0478
912,00;0,0478
911,00;0,0477
910,00;0,0477
909,00;0,0477
908,00;0,0476
907,00;0,0476
906,00;0,0476
905,00;0,0476
904,00;0,0476
903,00;0,0476
902,00;0,0476
901,00;0,0475
900,00;0,0475
899,00;0,0475
898,00;0,0475
897,00;0,0475
896,00;0,0474
895,00;0,0474
894,00;0,0474
893,00;0,0474
892,00;0,0474
891,00;0,0473
890,00;0,0473
889,00;0,0473
888,00;0,0473
887,00;0,0473
886,00;0,0472
885,00;0,0472
884,00;0,0472
883,00;0,0472
882,00;0,0471
881,00;0,0471
880,00;0,0471
879,00;0,0471
878,00;0,0470
877,00;0,0470
876,00;0,0470
875,00;0,0469
874,00;0,0469
873,00;0,0468
872,00;0,0468
871,00;0,0468
870,00;0,0468
869,00;0,0467
868,00;0,0467
867,00;0,0467
866,00;0,0466
865,00;0,0465
864,00;0,0465
863,00;0,0464
862,00;0,0464
861,00;0,0463
860,00;0,0463
859,00;0,0463
858,00;0,0462
857,00;0,0462
856,00;0,0462
855,00;0,0462
854,00;0,0461
853,00;0,0461
852,00;0,0460
851,00;0,0460
850,00;0,0460
849,00;0,0459
848,00;0,0459
847,00;0,0459
846,00;0,0458
845,00;0,0458
844,00;0,0458
843,00;0,0458
842,00;0,0457
841,00;0,0457
840,00;0,0456
839,00;0,0456
838,00;0,0456
837,00;0,0455
836,00;0,0455
835,00;0,0455
834,00;0,0454
833,00;0,0454
832,00;0,0453
831,00;0,0453
830,00;0,0452
829,00;0,0451
828,00;0,0451
827,00;0,0450
826,00;0,0450
825,00;0,0450
824,00;0,0450
823,00;0,0450
822,00;0,0450
821,00;0,0449
820,00;0,0449
819,00;0,0448
818,00;0,0448
817,00;0,0447
816,00;0,0447
815,00;0,0447
814,00;0,0447
813,00;0,0447
812,00;0,0447
811,00;0,0446
810,00;0,0445
809,00;0,0444
808,00;0,0443
807,00;0,0442
806,00;0,0442
805,00;0,0442
804,00;0,0442
803,00;0,0442
802,00;0,0441
801,00;0,0440
800,00;0,0439
799,00;0,0438
798,00;0,0437
797,00;0,0437
796,00;0,0437
795,00;0,0437
794,00;0,0437
793,00;0,0437
792,00;0,0437
791,00;0,0437
790,00;0,0437
789,00;0,0437
788,00;0,0436
787,00;0,0436
786,00;0,0436
785,00;0,0436
784,00;0,0436
783,00;0,0436
782,00;0,0435
781,00;0,0435
780,00;0,0435
779,00;0,0435
778,00;0,0435
777,00;0,0435
776,00;0,0435
775,00;0,0435
774,00;0,0434
773,00;0,0434
772,00;0,0433
771,00;0,0433
770,00;0,0433
769,00;0,0434
768,00;0,0434
767,00;0,0434
766,00;0,0434
765,00;0,0433
764,00;0,0433
763,00;0,0432
762,00;0,0433
761,00;0,0433
760,00;0,0434
759,00;0,0434
758,00;0,0435
757,00;0,0435
756,00;0,0435
755,00;0,0434
754,00;0,0433
753,00;0,0432
752,00;0,0431
751,00;0,0431
750,00;0,0432
749,00;0,0431
748,00;0,0431
747,00;0,0430
746,00;0,0431
745,00;0,0431
744,00;0,0432
743,00;0,0432
742,00;0,0432
741,00;0,0433
740,00;0,0434
739,00;0,0435
738,00;0,0437
737,00;0,0439
736,00;0,0441
735,00;0,0443
734,00;0,0445
733,00;0,0447
732,00;0,0448
731,00;0,0449
730,00;0,0450
729,00;0,0452
728,00;0,0453
727,00;0,0455
726,00;0,0455
725,00;0,0455
724,00;0,0454
723,00;0,0452
722,00;0,0450
721,00;0,0448
720,00;0,0447
719,00;0,0447
718,00;0,0446
717,00;0,0445
716,00;0,0446
715,00;0,0448
714,00;0,0450
713,00;0,0452
712,00;0,0453
711,00;0,0454
710,00;0,0456
709,00;0,0458
708,00;0,0461
707,00;0,0464
706,00;0,0467
705,00;0,0470
704,00;0,0472
703,00;0,0474
702,00;0,0475
701,00;0,0478
700,00;0,0482
699,00;0,0486
698,00;0,0490
697,00;0,0494
696,00;0,0497
695,00;0,0498
694,00;0,0499
693,00;0,0499
692,00;0,0499
691,00;0,0498
690,00;0,0495
689,00;0,0492
688,00;0,0488
687,00;0,0482
686,00;0,0476
685,00;0,0472
684,00;0,0469
683,00;0,0466
682,00;0,0462
681,00;0,0459
680,00;0,0454
679,00;0,0449
678,00;0,0445
677,00;0,0441
676,00;0,0439
675,00;0,0436
674,00;0,0434
673,00;0,0431
672,00;0,0428
671,00;0,0424
670,00;0,0419
669,00;0,0415
668,00;0,0414
667,00;0,0415
666,00;0,0415
665,00;0,0414
664,00;0,0413
663,00;0,0411
662,00;0,0409
661,00;0,0407
660,00;0,0406
659,00;0,0405
658,00;0,0405
657,00;0,0406
656,00;0,0408
655,00;0,0410
654,00;0,0412
653,00;0,0415
652,00;0,0419
651,00;0,0422
650,00;0,0426
649,00;0,0430
648,00;0,0435
647,00;0,0441
646,00;0,0447
645,00;0,0453
644,00;0,0459
643,00;0,0466
642,00;0,0471
641,00;0,0477
640,00;0,0482
639,00;0,0486
638,00;0,0489
637,00;0,0492
636,00;0,0495
635,00;0,0498
634,00;0,0499
633,00;0,0497
632,00;0,0493
631,00;0,0488
630,00;0,0483
629,00;0,0478
628,00;0,0475
627,00;0,0471
626,00;0,0467
625,00;0,0461
624,00;0,0456
623,00;0,0452
622,00;0,0448
621,00;0,0446
620,00;0,0445
619,00;0,0443
618,00;0,0442
617,00;0,0440
616,00;0,0439
615,00;0,0437
614,00;0,0435
613,00;0,0432
612,00;0,0429
611,00;0,0426
610,00;0,0423
609,00;0,0422
608,00;0,0422
607,00;0,0422
606,00;0,0421
605,00;0,0417
604,00;0,0414
603,00;0,0412
602,00;0,0412
601,00;0,0413
600,00;0,0413
599,00;0,0413
598,00;0,0413
597,00;0,0413
596,00;0,0414
595,00;0,0415
594,00;0,0414
593,00;0,0414
592,00;0,0413
591,00;0,0413
590,00;0,0413
589,00;0,0416
588,00;0,0418
587,00;0,0421
586,00;0,0422
585,00;0,0421
584,00;0,0419
583,00;0,0416
582,00;0,0414
581,00;0,0412
580,00;0,0412
579,00;0,0412
578,00;0,0411
577,00;0,0411
576,00;0,0411
575,00;0,0410
574,00;0,0408
573,00;0,0408
572,00;0,0410
571,00;0,0411
570,00;0,0411
569,00;0,0410
568,00;0,0411
567,00;0,0415
566,00;0,0420
565,00;0,0426
564,00;0,0432
563,00;0,0437
562,00;0,0441
561,00;0,0444
560,00;0,0446
559,00;0,0445
558,00;0,0443
557,00;0,0440
556,00;0,0439
555,00;0,0439
554,00;0,0438
553,00;0,0436
552,00;0,0431
551,00;0,0424
550,00;0,0417
549,00;0,0412
548,00;0,0406
547,00;0,0398
546,00;0,0389
545,00;0,0380
544,00;0,0372
543,00;0,0363
542,00;0,0352
541,00;0,0341
540,00;0,0328
539,00;0,0316
538,00;0,0305
537,00;0,0297
536,00;0,0288
535,00;0,0277
534,00;0,0264
533,00;0,0252
532,00;0,0242
531,00;0,0232
530,00;0,0221
529,00;0,0209
528,00;0,0197
527,00;0,0185
526,00;0,0173
525,00;0,0162
524,00;0,0151
523,00;0,0140
522,00;0,0128
521,00;0,0114
520,00;0,0100
519,00;0,0084
518,00;0,0069
517,00;0,0054
516,00;0,0041
515,00;0,0030
514,00;0,0022
513,00;0,0016
512,00;0,0009
511,00;0,0000
510,00;-0,0009
509,00;-0,0016
508,00;-0,0023
507,00;-0,0030
506,00;-0,0040
505,00;-0,0050
504,00;-0,0060
503,00;-0,0071
502,00;-0,0082
501,00;-0,0093
500,00;-0,0102
