Создан как новый массив данных;Образец 014 полученный BalashovM Дата пятница, марта 03 2023
cm-1;A
4000,00;0,0573
3999,00;0,0573
3998,00;0,0573
3997,00;0,0573
3996,00;0,0573
3995,00;0,0573
3994,00;0,0573
3993,00;0,0573
3992,00;0,0573
3991,00;0,0573
3990,00;0,0573
3989,00;0,0573
3988,00;0,0573
3987,00;0,0573
3986,00;0,0573
3985,00;0,0574
3984,00;0,0574
3983,00;0,0573
3982,00;0,0573
3981,00;0,0573
3980,00;0,0573
3979,00;0,0573
3978,00;0,0573
3977,00;0,0574
3976,00;0,0574
3975,00;0,0574
3974,00;0,0574
3973,00;0,0574
3972,00;0,0574
3971,00;0,0574
3970,00;0,0574
3969,00;0,0574
3968,00;0,0574
3967,00;0,0574
3966,00;0,0574
3965,00;0,0574
3964,00;0,0574
3963,00;0,0574
3962,00;0,0574
3961,00;0,0574
3960,00;0,0574
3959,00;0,0574
3958,00;0,0574
3957,00;0,0574
3956,00;0,0574
3955,00;0,0574
3954,00;0,0574
3953,00;0,0574
3952,00;0,0574
3951,00;0,0574
3950,00;0,0574
3949,00;0,0574
3948,00;0,0574
3947,00;0,0574
3946,00;0,0574
3945,00;0,0574
3944,00;0,0574
3943,00;0,0574
3942,00;0,0574
3941,00;0,0574
3940,00;0,0574
3939,00;0,0574
3938,00;0,0574
3937,00;0,0574
3936,00;0,0574
3935,00;0,0574
3934,00;0,0574
3933,00;0,0575
3932,00;0,0575
3931,00;0,0575
3930,00;0,0575
3929,00;0,0575
3928,00;0,0575
3927,00;0,0575
3926,00;0,0575
3925,00;0,0575
3924,00;0,0575
3923,00;0,0575
3922,00;0,0575
3921,00;0,0575
3920,00;0,0575
3919,00;0,0575
3918,00;0,0574
3917,00;0,0574
3916,00;0,0574
3915,00;0,0574
3914,00;0,0575
3913,00;0,0575
3912,00;0,0575
3911,00;0,0575
3910,00;0,0575
3909,00;0,0575
3908,00;0,0575
3907,00;0,0575
3906,00;0,0575
3905,00;0,0575
3904,00;0,0575
3903,00;0,0575
3902,00;0,0575
3901,00;0,0575
3900,00;0,0575
3899,00;0,0575
3898,00;0,0575
3897,00;0,0575
3896,00;0,0575
3895,00;0,0575
3894,00;0,0575
3893,00;0,0575
3892,00;0,0575
3891,00;0,0575
3890,00;0,0575
3889,00;0,0575
3888,00;0,0575
3887,00;0,0575
3886,00;0,0575
3885,00;0,0575
3884,00;0,0575
3883,00;0,0575
3882,00;0,0575
3881,00;0,0575
3880,00;0,0575
3879,00;0,0575
3878,00;0,0575
3877,00;0,0575
3876,00;0,0575
3875,00;0,0575
3874,00;0,0575
3873,00;0,0575
3872,00;0,0575
3871,00;0,0575
3870,00;0,0575
3869,00;0,0575
3868,00;0,0575
3867,00;0,0575
3866,00;0,0575
3865,00;0,0575
3864,00;0,0575
3863,00;0,0575
3862,00;0,0575
3861,00;0,0575
3860,00;0,0575
3859,00;0,0575
3858,00;0,0575
3857,00;0,0575
3856,00;0,0575
3855,00;0,0575
3854,00;0,0575
3853,00;0,0575
3852,00;0,0575
3851,00;0,0575
3850,00;0,0575
3849,00;0,0575
3848,00;0,0575
3847,00;0,0575
3846,00;0,0575
3845,00;0,0575
3844,00;0,0575
3843,00;0,0575
3842,00;0,0575
3841,00;0,0575
3840,00;0,0575
3839,00;0,0575
3838,00;0,0575
3837,00;0,0575
3836,00;0,0575
3835,00;0,0575
3834,00;0,0575
3833,00;0,0575
3832,00;0,0575
3831,00;0,0575
3830,00;0,0575
3829,00;0,0575
3828,00;0,0575
3827,00;0,0575
3826,00;0,0575
3825,00;0,0575
3824,00;0,0575
3823,00;0,0575
3822,00;0,0575
3821,00;0,0575
3820,00;0,0575
3819,00;0,0575
3818,00;0,0575
3817,00;0,0575
3816,00;0,0575
3815,00;0,0575
3814,00;0,0575
3813,00;0,0575
3812,00;0,0575
3811,00;0,0575
3810,00;0,0575
3809,00;0,0575
3808,00;0,0575
3807,00;0,0575
3806,00;0,0575
3805,00;0,0575
3804,00;0,0575
3803,00;0,0575
3802,00;0,0575
3801,00;0,0575
3800,00;0,0575
3799,00;0,0575
3798,00;0,0575
3797,00;0,0575
3796,00;0,0575
3795,00;0,0575
3794,00;0,0575
3793,00;0,0575
3792,00;0,0575
3791,00;0,0575
3790,00;0,0575
3789,00;0,0575
3788,00;0,0575
3787,00;0,0575
3786,00;0,0575
3785,00;0,0575
3784,00;0,0575
3783,00;0,0575
3782,00;0,0575
3781,00;0,0575
3780,00;0,0575
3779,00;0,0575
3778,00;0,0575
3777,00;0,0575
3776,00;0,0575
3775,00;0,0575
3774,00;0,0575
3773,00;0,0575
3772,00;0,0575
3771,00;0,0575
3770,00;0,0575
3769,00;0,0575
3768,00;0,0575
3767,00;0,0575
3766,00;0,0574
3765,00;0,0574
3764,00;0,0574
3763,00;0,0574
3762,00;0,0574
3761,00;0,0574
3760,00;0,0574
3759,00;0,0574
3758,00;0,0574
3757,00;0,0574
3756,00;0,0574
3755,00;0,0574
3754,00;0,0574
3753,00;0,0574
3752,00;0,0574
3751,00;0,0574
3750,00;0,0574
3749,00;0,0574
3748,00;0,0574
3747,00;0,0574
3746,00;0,0574
3745,00;0,0574
3744,00;0,0574
3743,00;0,0574
3742,00;0,0574
3741,00;0,0574
3740,00;0,0574
3739,00;0,0574
3738,00;0,0574
3737,00;0,0574
3736,00;0,0574
3735,00;0,0574
3734,00;0,0574
3733,00;0,0574
3732,00;0,0574
3731,00;0,0574
3730,00;0,0574
3729,00;0,0574
3728,00;0,0574
3727,00;0,0574
3726,00;0,0574
3725,00;0,0574
3724,00;0,0574
3723,00;0,0573
3722,00;0,0573
3721,00;0,0573
3720,00;0,0573
3719,00;0,0573
3718,00;0,0573
3717,00;0,0573
3716,00;0,0573
3715,00;0,0573
3714,00;0,0573
3713,00;0,0573
3712,00;0,0573
3711,00;0,0573
3710,00;0,0573
3709,00;0,0573
3708,00;0,0573
3707,00;0,0573
3706,00;0,0573
3705,00;0,0573
3704,00;0,0573
3703,00;0,0573
3702,00;0,0573
3701,00;0,0573
3700,00;0,0573
3699,00;0,0573
3698,00;0,0573
3697,00;0,0573
3696,00;0,0573
3695,00;0,0573
3694,00;0,0573
3693,00;0,0573
3692,00;0,0573
3691,00;0,0573
3690,00;0,0573
3689,00;0,0573
3688,00;0,0573
3687,00;0,0573
3686,00;0,0573
3685,00;0,0573
3684,00;0,0573
3683,00;0,0573
3682,00;0,0573
3681,00;0,0573
3680,00;0,0573
3679,00;0,0573
3678,00;0,0573
3677,00;0,0573
3676,00;0,0573
3675,00;0,0573
3674,00;0,0573
3673,00;0,0573
3672,00;0,0573
3671,00;0,0573
3670,00;0,0573
3669,00;0,0573
3668,00;0,0573
3667,00;0,0573
3666,00;0,0573
3665,00;0,0573
3664,00;0,0573
3663,00;0,0573
3662,00;0,0573
3661,00;0,0573
3660,00;0,0573
3659,00;0,0573
3658,00;0,0573
3657,00;0,0573
3656,00;0,0573
3655,00;0,0573
3654,00;0,0573
3653,00;0,0573
3652,00;0,0573
3651,00;0,0573
3650,00;0,0573
3649,00;0,0573
3648,00;0,0573
3647,00;0,0573
3646,00;0,0573
3645,00;0,0573
3644,00;0,0573
3643,00;0,0573
3642,00;0,0573
3641,00;0,0573
3640,00;0,0573
3639,00;0,0573
3638,00;0,0573
3637,00;0,0573
3636,00;0,0573
3635,00;0,0573
3634,00;0,0573
3633,00;0,0573
3632,00;0,0573
3631,00;0,0573
3630,00;0,0573
3629,00;0,0573
3628,00;0,0573
3627,00;0,0573
3626,00;0,0573
3625,00;0,0573
3624,00;0,0573
3623,00;0,0573
3622,00;0,0573
3621,00;0,0573
3620,00;0,0573
3619,00;0,0573
3618,00;0,0573
3617,00;0,0573
3616,00;0,0573
3615,00;0,0573
3614,00;0,0573
3613,00;0,0573
3612,00;0,0573
3611,00;0,0573
3610,00;0,0573
3609,00;0,0573
3608,00;0,0573
3607,00;0,0573
3606,00;0,0573
3605,00;0,0573
3604,00;0,0573
3603,00;0,0573
3602,00;0,0573
3601,00;0,0573
3600,00;0,0573
3599,00;0,0573
3598,00;0,0573
3597,00;0,0573
3596,00;0,0573
3595,00;0,0573
3594,00;0,0573
3593,00;0,0573
3592,00;0,0573
3591,00;0,0573
3590,00;0,0573
3589,00;0,0573
3588,00;0,0573
3587,00;0,0573
3586,00;0,0573
3585,00;0,0573
3584,00;0,0573
3583,00;0,0573
3582,00;0,0573
3581,00;0,0573
3580,00;0,0573
3579,00;0,0573
3578,00;0,0573
3577,00;0,0574
3576,00;0,0574
3575,00;0,0574
3574,00;0,0574
3573,00;0,0574
3572,00;0,0574
3571,00;0,0574
3570,00;0,0574
3569,00;0,0574
3568,00;0,0575
3567,00;0,0575
3566,00;0,0575
3565,00;0,0575
3564,00;0,0575
3563,00;0,0575
3562,00;0,0575
3561,00;0,0575
3560,00;0,0575
3559,00;0,0575
3558,00;0,0575
3557,00;0,0575
3556,00;0,0575
3555,00;0,0575
3554,00;0,0575
3553,00;0,0575
3552,00;0,0575
3551,00;0,0575
3550,00;0,0576
3549,00;0,0576
3548,00;0,0576
3547,00;0,0576
3546,00;0,0576
3545,00;0,0576
3544,00;0,0576
3543,00;0,0576
3542,00;0,0576
3541,00;0,0576
3540,00;0,0576
3539,00;0,0577
3538,00;0,0577
3537,00;0,0577
3536,00;0,0577
3535,00;0,0577
3534,00;0,0577
3533,00;0,0577
3532,00;0,0577
3531,00;0,0577
3530,00;0,0577
3529,00;0,0577
3528,00;0,0577
3527,00;0,0578
3526,00;0,0578
3525,00;0,0578
3524,00;0,0578
3523,00;0,0578
3522,00;0,0578
3521,00;0,0578
3520,00;0,0578
3519,00;0,0578
3518,00;0,0578
3517,00;0,0578
3516,00;0,0578
3515,00;0,0578
3514,00;0,0578
3513,00;0,0578
3512,00;0,0578
3511,00;0,0578
3510,00;0,0578
3509,00;0,0578
3508,00;0,0578
3507,00;0,0578
3506,00;0,0578
3505,00;0,0578
3504,00;0,0578
3503,00;0,0579
3502,00;0,0579
3501,00;0,0579
3500,00;0,0579
3499,00;0,0579
3498,00;0,0579
3497,00;0,0579
3496,00;0,0579
3495,00;0,0579
3494,00;0,0579
3493,00;0,0579
3492,00;0,0579
3491,00;0,0579
3490,00;0,0579
3489,00;0,0579
3488,00;0,0579
3487,00;0,0579
3486,00;0,0579
3485,00;0,0580
3484,00;0,0580
3483,00;0,0580
3482,00;0,0580
3481,00;0,0580
3480,00;0,0580
3479,00;0,0580
3478,00;0,0580
3477,00;0,0580
3476,00;0,0580
3475,00;0,0580
3474,00;0,0580
3473,00;0,0580
3472,00;0,0580
3471,00;0,0580
3470,00;0,0580
3469,00;0,0580
3468,00;0,0580
3467,00;0,0581
3466,00;0,0581
3465,00;0,0581
3464,00;0,0581
3463,00;0,0581
3462,00;0,0581
3461,00;0,0581
3460,00;0,0581
3459,00;0,0581
3458,00;0,0581
3457,00;0,0581
3456,00;0,0581
3455,00;0,0581
3454,00;0,0581
3453,00;0,0581
3452,00;0,0582
3451,00;0,0582
3450,00;0,0582
3449,00;0,0582
3448,00;0,0582
3447,00;0,0582
3446,00;0,0582
3445,00;0,0583
3444,00;0,0583
3443,00;0,0583
3442,00;0,0583
3441,00;0,0582
3440,00;0,0582
3439,00;0,0582
3438,00;0,0582
3437,00;0,0582
3436,00;0,0582
3435,00;0,0583
3434,00;0,0583
3433,00;0,0583
3432,00;0,0583
3431,00;0,0583
3430,00;0,0583
3429,00;0,0583
3428,00;0,0583
3427,00;0,0583
3426,00;0,0583
3425,00;0,0583
3424,00;0,0583
3423,00;0,0583
3422,00;0,0583
3421,00;0,0583
3420,00;0,0583
3419,00;0,0583
3418,00;0,0584
3417,00;0,0584
3416,00;0,0583
3415,00;0,0583
3414,00;0,0583
3413,00;0,0583
3412,00;0,0584
3411,00;0,0584
3410,00;0,0584
3409,00;0,0584
3408,00;0,0584
3407,00;0,0584
3406,00;0,0584
3405,00;0,0584
3404,00;0,0584
3403,00;0,0584
3402,00;0,0584
3401,00;0,0584
3400,00;0,0584
3399,00;0,0584
3398,00;0,0584
3397,00;0,0584
3396,00;0,0584
3395,00;0,0584
3394,00;0,0584
3393,00;0,0584
3392,00;0,0584
3391,00;0,0585
3390,00;0,0585
3389,00;0,0585
3388,00;0,0585
3387,00;0,0585
3386,00;0,0585
3385,00;0,0585
3384,00;0,0585
3383,00;0,0585
3382,00;0,0585
3381,00;0,0585
3380,00;0,0585
3379,00;0,0585
3378,00;0,0585
3377,00;0,0585
3376,00;0,0586
3375,00;0,0586
3374,00;0,0586
3373,00;0,0586
3372,00;0,0586
3371,00;0,0586
3370,00;0,0586
3369,00;0,0586
3368,00;0,0586
3367,00;0,0586
3366,00;0,0586
3365,00;0,0586
3364,00;0,0586
3363,00;0,0586
3362,00;0,0586
3361,00;0,0586
3360,00;0,0586
3359,00;0,0586
3358,00;0,0586
3357,00;0,0586
3356,00;0,0586
3355,00;0,0587
3354,00;0,0587
3353,00;0,0587
3352,00;0,0587
3351,00;0,0587
3350,00;0,0587
3349,00;0,0587
3348,00;0,0587
3347,00;0,0587
3346,00;0,0587
3345,00;0,0587
3344,00;0,0587
3343,00;0,0587
3342,00;0,0587
3341,00;0,0587
3340,00;0,0587
3339,00;0,0587
3338,00;0,0587
3337,00;0,0587
3336,00;0,0587
3335,00;0,0587
3334,00;0,0587
3333,00;0,0587
3332,00;0,0587
3331,00;0,0587
3330,00;0,0587
3329,00;0,0587
3328,00;0,0587
3327,00;0,0587
3326,00;0,0587
3325,00;0,0587
3324,00;0,0587
3323,00;0,0587
3322,00;0,0587
3321,00;0,0587
3320,00;0,0587
3319,00;0,0587
3318,00;0,0587
3317,00;0,0587
3316,00;0,0587
3315,00;0,0587
3314,00;0,0587
3313,00;0,0587
3312,00;0,0587
3311,00;0,0587
3310,00;0,0587
3309,00;0,0587
3308,00;0,0587
3307,00;0,0587
3306,00;0,0587
3305,00;0,0587
3304,00;0,0587
3303,00;0,0587
3302,00;0,0588
3301,00;0,0588
3300,00;0,0588
3299,00;0,0588
3298,00;0,0587
3297,00;0,0587
3296,00;0,0587
3295,00;0,0587
3294,00;0,0587
3293,00;0,0587
3292,00;0,0587
3291,00;0,0588
3290,00;0,0588
3289,00;0,0588
3288,00;0,0588
3287,00;0,0588
3286,00;0,0588
3285,00;0,0588
3284,00;0,0588
3283,00;0,0588
3282,00;0,0588
3281,00;0,0588
3280,00;0,0588
3279,00;0,0588
3278,00;0,0588
3277,00;0,0588
3276,00;0,0588
3275,00;0,0588
3274,00;0,0588
3273,00;0,0588
3272,00;0,0588
3271,00;0,0588
3270,00;0,0588
3269,00;0,0588
3268,00;0,0588
3267,00;0,0588
3266,00;0,0588
3265,00;0,0588
3264,00;0,0588
3263,00;0,0588
3262,00;0,0588
3261,00;0,0588
3260,00;0,0588
3259,00;0,0588
3258,00;0,0588
3257,00;0,0588
3256,00;0,0588
3255,00;0,0588
3254,00;0,0588
3253,00;0,0588
3252,00;0,0588
3251,00;0,0588
3250,00;0,0588
3249,00;0,0588
3248,00;0,0588
3247,00;0,0588
3246,00;0,0588
3245,00;0,0588
3244,00;0,0588
3243,00;0,0588
3242,00;0,0588
3241,00;0,0588
3240,00;0,0588
3239,00;0,0588
3238,00;0,0588
3237,00;0,0588
3236,00;0,0588
3235,00;0,0588
3234,00;0,0588
3233,00;0,0588
3232,00;0,0588
3231,00;0,0589
3230,00;0,0589
3229,00;0,0589
3228,00;0,0589
3227,00;0,0589
3226,00;0,0589
3225,00;0,0589
3224,00;0,0589
3223,00;0,0589
3222,00;0,0589
3221,00;0,0589
3220,00;0,0589
3219,00;0,0589
3218,00;0,0589
3217,00;0,0589
3216,00;0,0589
3215,00;0,0589
3214,00;0,0589
3213,00;0,0589
3212,00;0,0589
3211,00;0,0589
3210,00;0,0589
3209,00;0,0589
3208,00;0,0589
3207,00;0,0589
3206,00;0,0589
3205,00;0,0589
3204,00;0,0589
3203,00;0,0589
3202,00;0,0589
3201,00;0,0589
3200,00;0,0589
3199,00;0,0589
3198,00;0,0589
3197,00;0,0589
3196,00;0,0589
3195,00;0,0589
3194,00;0,0589
3193,00;0,0589
3192,00;0,0589
3191,00;0,0589
3190,00;0,0589
3189,00;0,0589
3188,00;0,0589
3187,00;0,0589
3186,00;0,0589
3185,00;0,0589
3184,00;0,0589
3183,00;0,0589
3182,00;0,0589
3181,00;0,0589
3180,00;0,0589
3179,00;0,0589
3178,00;0,0589
3177,00;0,0589
3176,00;0,0589
3175,00;0,0589
3174,00;0,0590
3173,00;0,0590
3172,00;0,0590
3171,00;0,0590
3170,00;0,0590
3169,00;0,0590
3168,00;0,0590
3167,00;0,0590
3166,00;0,0590
3165,00;0,0590
3164,00;0,0590
3163,00;0,0590
3162,00;0,0590
3161,00;0,0590
3160,00;0,0590
3159,00;0,0590
3158,00;0,0590
3157,00;0,0589
3156,00;0,0589
3155,00;0,0589
3154,00;0,0589
3153,00;0,0589
3152,00;0,0589
3151,00;0,0589
3150,00;0,0589
3149,00;0,0589
3148,00;0,0589
3147,00;0,0589
3146,00;0,0590
3145,00;0,0590
3144,00;0,0590
3143,00;0,0589
3142,00;0,0589
3141,00;0,0589
3140,00;0,0589
3139,00;0,0589
3138,00;0,0589
3137,00;0,0589
3136,00;0,0589
3135,00;0,0589
3134,00;0,0589
3133,00;0,0589
3132,00;0,0589
3131,00;0,0589
3130,00;0,0589
3129,00;0,0589
3128,00;0,0589
3127,00;0,0589
3126,00;0,0589
3125,00;0,0589
3124,00;0,0589
3123,00;0,0589
3122,00;0,0588
3121,00;0,0588
3120,00;0,0588
3119,00;0,0588
3118,00;0,0588
3117,00;0,0588
3116,00;0,0588
3115,00;0,0588
3114,00;0,0589
3113,00;0,0589
3112,00;0,0589
3111,00;0,0589
3110,00;0,0589
3109,00;0,0589
3108,00;0,0589
3107,00;0,0589
3106,00;0,0589
3105,00;0,0589
3104,00;0,0590
3103,00;0,0589
3102,00;0,0589
3101,00;0,0589
3100,00;0,0589
3099,00;0,0589
3098,00;0,0590
3097,00;0,0590
3096,00;0,0590
3095,00;0,0590
3094,00;0,0590
3093,00;0,0590
3092,00;0,0589
3091,00;0,0589
3090,00;0,0589
3089,00;0,0589
3088,00;0,0589
3087,00;0,0589
3086,00;0,0589
3085,00;0,0589
3084,00;0,0589
3083,00;0,0589
3082,00;0,0589
3081,00;0,0588
3080,00;0,0588
3079,00;0,0588
3078,00;0,0589
3077,00;0,0589
3076,00;0,0589
3075,00;0,0590
3074,00;0,0590
3073,00;0,0590
3072,00;0,0590
3071,00;0,0590
3070,00;0,0589
3069,00;0,0589
3068,00;0,0589
3067,00;0,0589
3066,00;0,0589
3065,00;0,0589
3064,00;0,0589
3063,00;0,0589
3062,00;0,0589
3061,00;0,0589
3060,00;0,0589
3059,00;0,0589
3058,00;0,0589
3057,00;0,0589
3056,00;0,0589
3055,00;0,0589
3054,00;0,0589
3053,00;0,0589
3052,00;0,0589
3051,00;0,0589
3050,00;0,0589
3049,00;0,0589
3048,00;0,0589
3047,00;0,0589
3046,00;0,0589
3045,00;0,0589
3044,00;0,0589
3043,00;0,0589
3042,00;0,0589
3041,00;0,0589
3040,00;0,0589
3039,00;0,0589
3038,00;0,0589
3037,00;0,0589
3036,00;0,0589
3035,00;0,0589
3034,00;0,0589
3033,00;0,0589
3032,00;0,0589
3031,00;0,0590
3030,00;0,0590
3029,00;0,0590
3028,00;0,0590
3027,00;0,0590
3026,00;0,0590
3025,00;0,0590
3024,00;0,0590
3023,00;0,0590
3022,00;0,0590
3021,00;0,0590
3020,00;0,0590
3019,00;0,0590
3018,00;0,0590
3017,00;0,0590
3016,00;0,0589
3015,00;0,0589
3014,00;0,0589
3013,00;0,0589
3012,00;0,0590
3011,00;0,0590
3010,00;0,0591
3009,00;0,0591
3008,00;0,0591
3007,00;0,0591
3006,00;0,0591
3005,00;0,0592
3004,00;0,0592
3003,00;0,0592
3002,00;0,0593
3001,00;0,0593
3000,00;0,0594
2999,00;0,0594
2998,00;0,0593
2997,00;0,0594
2996,00;0,0594
2995,00;0,0594
2994,00;0,0594
2993,00;0,0594
2992,00;0,0594
2991,00;0,0594
2990,00;0,0594
2989,00;0,0595
2988,00;0,0595
2987,00;0,0595
2986,00;0,0595
2985,00;0,0596
2984,00;0,0596
2983,00;0,0597
2982,00;0,0597
2981,00;0,0597
2980,00;0,0597
2979,00;0,0597
2978,00;0,0597
2977,00;0,0597
2976,00;0,0596
2975,00;0,0596
2974,00;0,0595
2973,00;0,0596
2972,00;0,0596
2971,00;0,0596
2970,00;0,0595
2969,00;0,0595
2968,00;0,0594
2967,00;0,0594
2966,00;0,0594
2965,00;0,0593
2964,00;0,0593
2963,00;0,0592
2962,00;0,0592
2961,00;0,0592
2960,00;0,0592
2959,00;0,0592
2958,00;0,0592
2957,00;0,0593
2956,00;0,0593
2955,00;0,0593
2954,00;0,0593
2953,00;0,0592
2952,00;0,0592
2951,00;0,0592
2950,00;0,0591
2949,00;0,0591
2948,00;0,0591
2947,00;0,0591
2946,00;0,0590
2945,00;0,0590
2944,00;0,0590
2943,00;0,0590
2942,00;0,0590
2941,00;0,0590
2940,00;0,0590
2939,00;0,0590
2938,00;0,0590
2937,00;0,0590
2936,00;0,0589
2935,00;0,0589
2934,00;0,0588
2933,00;0,0588
2932,00;0,0588
2931,00;0,0587
2930,00;0,0588
2929,00;0,0588
2928,00;0,0588
2927,00;0,0588
2926,00;0,0588
2925,00;0,0588
2924,00;0,0588
2923,00;0,0589
2922,00;0,0589
2921,00;0,0589
2920,00;0,0589
2919,00;0,0589
2918,00;0,0589
2917,00;0,0589
2916,00;0,0589
2915,00;0,0589
2914,00;0,0590
2913,00;0,0590
2912,00;0,0591
2911,00;0,0591
2910,00;0,0592
2909,00;0,0592
2908,00;0,0593
2907,00;0,0593
2906,00;0,0593
2905,00;0,0593
2904,00;0,0593
2903,00;0,0594
2902,00;0,0594
2901,00;0,0594
2900,00;0,0594
2899,00;0,0594
2898,00;0,0594
2897,00;0,0594
2896,00;0,0594
2895,00;0,0594
2894,00;0,0594
2893,00;0,0595
2892,00;0,0595
2891,00;0,0595
2890,00;0,0595
2889,00;0,0595
2888,00;0,0595
2887,00;0,0595
2886,00;0,0595
2885,00;0,0595
2884,00;0,0595
2883,00;0,0595
2882,00;0,0595
2881,00;0,0595
2880,00;0,0595
2879,00;0,0595
2878,00;0,0595
2877,00;0,0594
2876,00;0,0594
2875,00;0,0594
2874,00;0,0594
2873,00;0,0594
2872,00;0,0594
2871,00;0,0594
2870,00;0,0594
2869,00;0,0594
2868,00;0,0594
2867,00;0,0595
2866,00;0,0595
2865,00;0,0595
2864,00;0,0594
2863,00;0,0594
2862,00;0,0593
2861,00;0,0593
2860,00;0,0593
2859,00;0,0593
2858,00;0,0593
2857,00;0,0593
2856,00;0,0593
2855,00;0,0593
2854,00;0,0593
2853,00;0,0593
2852,00;0,0593
2851,00;0,0593
2850,00;0,0593
2849,00;0,0594
2848,00;0,0594
2847,00;0,0595
2846,00;0,0595
2845,00;0,0595
2844,00;0,0595
2843,00;0,0595
2842,00;0,0595
2841,00;0,0594
2840,00;0,0594
2839,00;0,0594
2838,00;0,0595
2837,00;0,0595
2836,00;0,0595
2835,00;0,0595
2834,00;0,0595
2833,00;0,0596
2832,00;0,0596
2831,00;0,0596
2830,00;0,0595
2829,00;0,0595
2828,00;0,0595
2827,00;0,0595
2826,00;0,0595
2825,00;0,0596
2824,00;0,0596
2823,00;0,0596
2822,00;0,0596
2821,00;0,0596
2820,00;0,0596
2819,00;0,0596
2818,00;0,0596
2817,00;0,0596
2816,00;0,0596
2815,00;0,0596
2814,00;0,0596
2813,00;0,0596
2812,00;0,0596
2811,00;0,0596
2810,00;0,0596
2809,00;0,0596
2808,00;0,0596
2807,00;0,0596
2806,00;0,0596
2805,00;0,0596
2804,00;0,0596
2803,00;0,0596
2802,00;0,0596
2801,00;0,0596
2800,00;0,0595
2799,00;0,0595
2798,00;0,0595
2797,00;0,0595
2796,00;0,0595
2795,00;0,0595
2794,00;0,0595
2793,00;0,0595
2792,00;0,0595
2791,00;0,0595
2790,00;0,0595
2789,00;0,0595
2788,00;0,0596
2787,00;0,0596
2786,00;0,0596
2785,00;0,0596
2784,00;0,0596
2783,00;0,0596
2782,00;0,0596
2781,00;0,0596
2780,00;0,0596
2779,00;0,0596
2778,00;0,0596
2777,00;0,0596
2776,00;0,0596
2775,00;0,0596
2774,00;0,0596
2773,00;0,0596
2772,00;0,0596
2771,00;0,0596
2770,00;0,0596
2769,00;0,0596
2768,00;0,0596
2767,00;0,0596
2766,00;0,0596
2765,00;0,0596
2764,00;0,0596
2763,00;0,0596
2762,00;0,0596
2761,00;0,0596
2760,00;0,0596
2759,00;0,0596
2758,00;0,0596
2757,00;0,0596
2756,00;0,0596
2755,00;0,0596
2754,00;0,0596
2753,00;0,0596
2752,00;0,0596
2751,00;0,0596
2750,00;0,0596
2749,00;0,0596
2748,00;0,0596
2747,00;0,0596
2746,00;0,0596
2745,00;0,0596
2744,00;0,0596
2743,00;0,0596
2742,00;0,0596
2741,00;0,0596
2740,00;0,0596
2739,00;0,0596
2738,00;0,0596
2737,00;0,0596
2736,00;0,0596
2735,00;0,0596
2734,00;0,0596
2733,00;0,0596
2732,00;0,0596
2731,00;0,0596
2730,00;0,0596
2729,00;0,0596
2728,00;0,0596
2727,00;0,0596
2726,00;0,0596
2725,00;0,0596
2724,00;0,0596
2723,00;0,0596
2722,00;0,0596
2721,00;0,0596
2720,00;0,0596
2719,00;0,0596
2718,00;0,0596
2717,00;0,0596
2716,00;0,0596
2715,00;0,0596
2714,00;0,0596
2713,00;0,0596
2712,00;0,0596
2711,00;0,0596
2710,00;0,0596
2709,00;0,0597
2708,00;0,0597
2707,00;0,0597
2706,00;0,0597
2705,00;0,0597
2704,00;0,0597
2703,00;0,0597
2702,00;0,0597
2701,00;0,0597
2700,00;0,0597
2699,00;0,0597
2698,00;0,0597
2697,00;0,0597
2696,00;0,0597
2695,00;0,0597
2694,00;0,0597
2693,00;0,0597
2692,00;0,0597
2691,00;0,0597
2690,00;0,0597
2689,00;0,0597
2688,00;0,0597
2687,00;0,0597
2686,00;0,0597
2685,00;0,0597
2684,00;0,0597
2683,00;0,0597
2682,00;0,0597
2681,00;0,0597
2680,00;0,0597
2679,00;0,0597
2678,00;0,0597
2677,00;0,0597
2676,00;0,0598
2675,00;0,0598
2674,00;0,0598
2673,00;0,0597
2672,00;0,0597
2671,00;0,0597
2670,00;0,0597
2669,00;0,0597
2668,00;0,0597
2667,00;0,0597
2666,00;0,0597
2665,00;0,0598
2664,00;0,0598
2663,00;0,0598
2662,00;0,0598
2661,00;0,0599
2660,00;0,0599
2659,00;0,0599
2658,00;0,0599
2657,00;0,0598
2656,00;0,0598
2655,00;0,0598
2654,00;0,0598
2653,00;0,0598
2652,00;0,0598
2651,00;0,0598
2650,00;0,0597
2649,00;0,0597
2648,00;0,0597
2647,00;0,0597
2646,00;0,0597
2645,00;0,0597
2644,00;0,0596
2643,00;0,0596
2642,00;0,0596
2641,00;0,0596
2640,00;0,0596
2639,00;0,0596
2638,00;0,0596
2637,00;0,0596
2636,00;0,0595
2635,00;0,0595
2634,00;0,0595
2633,00;0,0594
2632,00;0,0594
2631,00;0,0594
2630,00;0,0594
2629,00;0,0593
2628,00;0,0593
2627,00;0,0593
2626,00;0,0593
2625,00;0,0593
2624,00;0,0592
2623,00;0,0592
2622,00;0,0592
2621,00;0,0592
2620,00;0,0592
2619,00;0,0592
2618,00;0,0592
2617,00;0,0591
2616,00;0,0591
2615,00;0,0591
2614,00;0,0591
2613,00;0,0591
2612,00;0,0590
2611,00;0,0590
2610,00;0,0590
2609,00;0,0590
2608,00;0,0590
2607,00;0,0589
2606,00;0,0589
2605,00;0,0589
2604,00;0,0589
2603,00;0,0589
2602,00;0,0589
2601,00;0,0589
2600,00;0,0589
2599,00;0,0588
2598,00;0,0588
2597,00;0,0588
2596,00;0,0588
2595,00;0,0588
2594,00;0,0588
2593,00;0,0588
2592,00;0,0588
2591,00;0,0588
2590,00;0,0587
2589,00;0,0587
2588,00;0,0587
2587,00;0,0587
2586,00;0,0587
2585,00;0,0587
2584,00;0,0587
2583,00;0,0587
2582,00;0,0587
2581,00;0,0587
2580,00;0,0587
2579,00;0,0587
2578,00;0,0587
2577,00;0,0586
2576,00;0,0586
2575,00;0,0586
2574,00;0,0586
2573,00;0,0586
2572,00;0,0586
2571,00;0,0586
2570,00;0,0586
2569,00;0,0586
2568,00;0,0586
2567,00;0,0586
2566,00;0,0586
2565,00;0,0586
2564,00;0,0586
2563,00;0,0586
2562,00;0,0585
2561,00;0,0585
2560,00;0,0585
2559,00;0,0585
2558,00;0,0585
2557,00;0,0585
2556,00;0,0585
2555,00;0,0586
2554,00;0,0585
2553,00;0,0585
2552,00;0,0585
2551,00;0,0585
2550,00;0,0585
2549,00;0,0585
2548,00;0,0585
2547,00;0,0585
2546,00;0,0585
2545,00;0,0585
2544,00;0,0585
2543,00;0,0585
2542,00;0,0585
2541,00;0,0585
2540,00;0,0585
2539,00;0,0585
2538,00;0,0585
2537,00;0,0585
2536,00;0,0585
2535,00;0,0584
2534,00;0,0584
2533,00;0,0584
2532,00;0,0584
2531,00;0,0584
2530,00;0,0584
2529,00;0,0584
2528,00;0,0584
2527,00;0,0584
2526,00;0,0584
2525,00;0,0584
2524,00;0,0584
2523,00;0,0584
2522,00;0,0584
2521,00;0,0584
2520,00;0,0584
2519,00;0,0584
2518,00;0,0584
2517,00;0,0584
2516,00;0,0584
2515,00;0,0584
2514,00;0,0584
2513,00;0,0584
2512,00;0,0584
2511,00;0,0584
2510,00;0,0584
2509,00;0,0584
2508,00;0,0584
2507,00;0,0583
2506,00;0,0583
2505,00;0,0583
2504,00;0,0584
2503,00;0,0584
2502,00;0,0584
2501,00;0,0584
2500,00;0,0584
2499,00;0,0584
2498,00;0,0584
2497,00;0,0584
2496,00;0,0584
2495,00;0,0584
2494,00;0,0584
2493,00;0,0584
2492,00;0,0584
2491,00;0,0584
2490,00;0,0585
2489,00;0,0585
2488,00;0,0585
2487,00;0,0585
2486,00;0,0585
2485,00;0,0585
2484,00;0,0585
2483,00;0,0585
2482,00;0,0585
2481,00;0,0585
2480,00;0,0585
2479,00;0,0585
2478,00;0,0585
2477,00;0,0585
2476,00;0,0585
2475,00;0,0585
2474,00;0,0585
2473,00;0,0585
2472,00;0,0585
2471,00;0,0585
2470,00;0,0585
2469,00;0,0585
2468,00;0,0585
2467,00;0,0585
2466,00;0,0585
2465,00;0,0585
2464,00;0,0585
2463,00;0,0585
2462,00;0,0585
2461,00;0,0585
2460,00;0,0585
2459,00;0,0585
2458,00;0,0585
2457,00;0,0585
2456,00;0,0585
2455,00;0,0585
2454,00;0,0585
2453,00;0,0585
2452,00;0,0585
2451,00;0,0585
2450,00;0,0585
2449,00;0,0585
2448,00;0,0585
2447,00;0,0585
2446,00;0,0585
2445,00;0,0585
2444,00;0,0586
2443,00;0,0586
2442,00;0,0586
2441,00;0,0585
2440,00;0,0585
2439,00;0,0585
2438,00;0,0585
2437,00;0,0585
2436,00;0,0585
2435,00;0,0585
2434,00;0,0585
2433,00;0,0585
2432,00;0,0585
2431,00;0,0585
2430,00;0,0585
2429,00;0,0585
2428,00;0,0585
2427,00;0,0585
2426,00;0,0585
2425,00;0,0585
2424,00;0,0585
2423,00;0,0585
2422,00;0,0585
2421,00;0,0585
2420,00;0,0585
2419,00;0,0585
2418,00;0,0585
2417,00;0,0585
2416,00;0,0585
2415,00;0,0585
2414,00;0,0585
2413,00;0,0585
2412,00;0,0585
2411,00;0,0585
2410,00;0,0585
2409,00;0,0585
2408,00;0,0585
2407,00;0,0585
2406,00;0,0585
2405,00;0,0585
2404,00;0,0585
2403,00;0,0585
2402,00;0,0585
2401,00;0,0585
2400,00;0,0585
2399,00;0,0585
2398,00;0,0585
2397,00;0,0585
2396,00;0,0585
2395,00;0,0585
2394,00;0,0585
2393,00;0,0585
2392,00;0,0585
2391,00;0,0586
2390,00;0,0586
2389,00;0,0586
2388,00;0,0586
2387,00;0,0586
2386,00;0,0586
2385,00;0,0586
2384,00;0,0586
2383,00;0,0585
2382,00;0,0585
2381,00;0,0585
2380,00;0,0585
2379,00;0,0584
2378,00;0,0584
2377,00;0,0584
2376,00;0,0585
2375,00;0,0585
2374,00;0,0585
2373,00;0,0585
2372,00;0,0586
2371,00;0,0586
2370,00;0,0586
2369,00;0,0586
2368,00;0,0586
2367,00;0,0586
2366,00;0,0586
2365,00;0,0586
2364,00;0,0587
2363,00;0,0587
2362,00;0,0587
2361,00;0,0587
2360,00;0,0587
2359,00;0,0588
2358,00;0,0588
2357,00;0,0588
2356,00;0,0588
2355,00;0,0588
2354,00;0,0587
2353,00;0,0588
2352,00;0,0588
2351,00;0,0589
2350,00;0,0589
2349,00;0,0589
2348,00;0,0589
2347,00;0,0590
2346,00;0,0590
2345,00;0,0591
2344,00;0,0591
2343,00;0,0591
2342,00;0,0591
2341,00;0,0591
2340,00;0,0591
2339,00;0,0591
2338,00;0,0591
2337,00;0,0592
2336,00;0,0592
2335,00;0,0592
2334,00;0,0592
2333,00;0,0592
2332,00;0,0592
2331,00;0,0593
2330,00;0,0593
2329,00;0,0594
2328,00;0,0594
2327,00;0,0595
2326,00;0,0597
2325,00;0,0598
2324,00;0,0598
2323,00;0,0599
2322,00;0,0598
2321,00;0,0598
2320,00;0,0597
2319,00;0,0597
2318,00;0,0596
2317,00;0,0595
2316,00;0,0595
2315,00;0,0595
2314,00;0,0595
2313,00;0,0595
2312,00;0,0596
2311,00;0,0596
2310,00;0,0596
2309,00;0,0596
2308,00;0,0596
2307,00;0,0596
2306,00;0,0595
2305,00;0,0595
2304,00;0,0595
2303,00;0,0595
2302,00;0,0596
2301,00;0,0596
2300,00;0,0596
2299,00;0,0596
2298,00;0,0596
2297,00;0,0596
2296,00;0,0596
2295,00;0,0596
2294,00;0,0597
2293,00;0,0597
2292,00;0,0598
2291,00;0,0598
2290,00;0,0598
2289,00;0,0599
2288,00;0,0599
2287,00;0,0599
2286,00;0,0599
2285,00;0,0599
2284,00;0,0598
2283,00;0,0598
2282,00;0,0597
2281,00;0,0596
2280,00;0,0596
2279,00;0,0596
2278,00;0,0595
2277,00;0,0595
2276,00;0,0594
2275,00;0,0593
2274,00;0,0592
2273,00;0,0592
2272,00;0,0592
2271,00;0,0592
2270,00;0,0591
2269,00;0,0591
2268,00;0,0591
2267,00;0,0590
2266,00;0,0590
2265,00;0,0590
2264,00;0,0590
2263,00;0,0590
2262,00;0,0591
2261,00;0,0592
2260,00;0,0592
2259,00;0,0592
2258,00;0,0592
2257,00;0,0592
2256,00;0,0592
2255,00;0,0592
2254,00;0,0592
2253,00;0,0592
2252,00;0,0592
2251,00;0,0592
2250,00;0,0592
2249,00;0,0592
2248,00;0,0591
2247,00;0,0591
2246,00;0,0591
2245,00;0,0590
2244,00;0,0590
2243,00;0,0590
2242,00;0,0590
2241,00;0,0590
2240,00;0,0590
2239,00;0,0590
2238,00;0,0590
2237,00;0,0591
2236,00;0,0591
2235,00;0,0590
2234,00;0,0590
2233,00;0,0590
2232,00;0,0590
2231,00;0,0590
2230,00;0,0590
2229,00;0,0590
2228,00;0,0590
2227,00;0,0590
2226,00;0,0590
2225,00;0,0590
2224,00;0,0590
2223,00;0,0590
2222,00;0,0590
2221,00;0,0590
2220,00;0,0589
2219,00;0,0589
2218,00;0,0589
2217,00;0,0589
2216,00;0,0589
2215,00;0,0589
2214,00;0,0589
2213,00;0,0589
2212,00;0,0589
2211,00;0,0589
2210,00;0,0589
2209,00;0,0589
2208,00;0,0589
2207,00;0,0589
2206,00;0,0589
2205,00;0,0589
2204,00;0,0589
2203,00;0,0590
2202,00;0,0589
2201,00;0,0589
2200,00;0,0589
2199,00;0,0590
2198,00;0,0590
2197,00;0,0590
2196,00;0,0590
2195,00;0,0591
2194,00;0,0591
2193,00;0,0591
2192,00;0,0590
2191,00;0,0590
2190,00;0,0590
2189,00;0,0590
2188,00;0,0589
2187,00;0,0589
2186,00;0,0588
2185,00;0,0587
2184,00;0,0587
2183,00;0,0588
2182,00;0,0588
2181,00;0,0588
2180,00;0,0587
2179,00;0,0587
2178,00;0,0587
2177,00;0,0587
2176,00;0,0587
2175,00;0,0587
2174,00;0,0586
2173,00;0,0586
2172,00;0,0585
2171,00;0,0585
2170,00;0,0584
2169,00;0,0585
2168,00;0,0585
2167,00;0,0586
2166,00;0,0588
2165,00;0,0589
2164,00;0,0590
2163,00;0,0590
2162,00;0,0588
2161,00;0,0585
2160,00;0,0580
2159,00;0,0575
2158,00;0,0573
2157,00;0,0572
2156,00;0,0572
2155,00;0,0572
2154,00;0,0572
2153,00;0,0572
2152,00;0,0573
2151,00;0,0574
2150,00;0,0575
2149,00;0,0575
2148,00;0,0575
2147,00;0,0575
2146,00;0,0574
2145,00;0,0573
2144,00;0,0574
2143,00;0,0575
2142,00;0,0576
2141,00;0,0576
2140,00;0,0576
2139,00;0,0575
2138,00;0,0575
2137,00;0,0575
2136,00;0,0575
2135,00;0,0574
2134,00;0,0573
2133,00;0,0572
2132,00;0,0572
2131,00;0,0573
2130,00;0,0574
2129,00;0,0575
2128,00;0,0576
2127,00;0,0577
2126,00;0,0578
2125,00;0,0578
2124,00;0,0578
2123,00;0,0579
2122,00;0,0580
2121,00;0,0580
2120,00;0,0581
2119,00;0,0582
2118,00;0,0583
2117,00;0,0585
2116,00;0,0586
2115,00;0,0586
2114,00;0,0587
2113,00;0,0587
2112,00;0,0587
2111,00;0,0586
2110,00;0,0586
2109,00;0,0586
2108,00;0,0587
2107,00;0,0587
2106,00;0,0587
2105,00;0,0587
2104,00;0,0587
2103,00;0,0586
2102,00;0,0587
2101,00;0,0587
2100,00;0,0587
2099,00;0,0587
2098,00;0,0586
2097,00;0,0585
2096,00;0,0584
2095,00;0,0584
2094,00;0,0584
2093,00;0,0584
2092,00;0,0584
2091,00;0,0585
2090,00;0,0585
2089,00;0,0585
2088,00;0,0585
2087,00;0,0586
2086,00;0,0586
2085,00;0,0587
2084,00;0,0587
2083,00;0,0587
2082,00;0,0587
2081,00;0,0587
2080,00;0,0587
2079,00;0,0587
2078,00;0,0587
2077,00;0,0587
2076,00;0,0587
2075,00;0,0587
2074,00;0,0587
2073,00;0,0587
2072,00;0,0587
2071,00;0,0586
2070,00;0,0586
2069,00;0,0586
2068,00;0,0586
2067,00;0,0586
2066,00;0,0586
2065,00;0,0586
2064,00;0,0586
2063,00;0,0586
2062,00;0,0585
2061,00;0,0584
2060,00;0,0584
2059,00;0,0583
2058,00;0,0584
2057,00;0,0585
2056,00;0,0586
2055,00;0,0586
2054,00;0,0587
2053,00;0,0588
2052,00;0,0589
2051,00;0,0590
2050,00;0,0589
2049,00;0,0588
2048,00;0,0587
2047,00;0,0586
2046,00;0,0585
2045,00;0,0584
2044,00;0,0583
2043,00;0,0583
2042,00;0,0582
2041,00;0,0582
2040,00;0,0581
2039,00;0,0581
2038,00;0,0581
2037,00;0,0581
2036,00;0,0581
2035,00;0,0579
2034,00;0,0578
2033,00;0,0577
2032,00;0,0577
2031,00;0,0577
2030,00;0,0577
2029,00;0,0577
2028,00;0,0576
2027,00;0,0575
2026,00;0,0574
2025,00;0,0574
2024,00;0,0573
2023,00;0,0574
2022,00;0,0574
2021,00;0,0575
2020,00;0,0576
2019,00;0,0576
2018,00;0,0575
2017,00;0,0575
2016,00;0,0575
2015,00;0,0575
2014,00;0,0574
2013,00;0,0574
2012,00;0,0574
2011,00;0,0575
2010,00;0,0575
2009,00;0,0575
2008,00;0,0574
2007,00;0,0573
2006,00;0,0572
2005,00;0,0572
2004,00;0,0572
2003,00;0,0573
2002,00;0,0573
2001,00;0,0574
2000,00;0,0574
1999,00;0,0574
1998,00;0,0574
1997,00;0,0575
1996,00;0,0576
1995,00;0,0577
1994,00;0,0577
1993,00;0,0577
1992,00;0,0577
1991,00;0,0577
1990,00;0,0577
1989,00;0,0578
1988,00;0,0578
1987,00;0,0579
1986,00;0,0579
1985,00;0,0579
1984,00;0,0578
1983,00;0,0578
1982,00;0,0578
1981,00;0,0579
1980,00;0,0578
1979,00;0,0577
1978,00;0,0575
1977,00;0,0573
1976,00;0,0573
1975,00;0,0573
1974,00;0,0573
1973,00;0,0573
1972,00;0,0573
1971,00;0,0573
1970,00;0,0573
1969,00;0,0573
1968,00;0,0573
1967,00;0,0573
1966,00;0,0574
1965,00;0,0574
1964,00;0,0574
1963,00;0,0575
1962,00;0,0575
1961,00;0,0574
1960,00;0,0574
1959,00;0,0574
1958,00;0,0574
1957,00;0,0574
1956,00;0,0574
1955,00;0,0573
1954,00;0,0572
1953,00;0,0572
1952,00;0,0573
1951,00;0,0573
1950,00;0,0573
1949,00;0,0573
1948,00;0,0573
1947,00;0,0573
1946,00;0,0573
1945,00;0,0573
1944,00;0,0573
1943,00;0,0573
1942,00;0,0573
1941,00;0,0574
1940,00;0,0574
1939,00;0,0574
1938,00;0,0574
1937,00;0,0574
1936,00;0,0574
1935,00;0,0574
1934,00;0,0574
1933,00;0,0574
1932,00;0,0575
1931,00;0,0575
1930,00;0,0575
1929,00;0,0575
1928,00;0,0575
1927,00;0,0575
1926,00;0,0575
1925,00;0,0575
1924,00;0,0575
1923,00;0,0576
1922,00;0,0576
1921,00;0,0576
1920,00;0,0576
1919,00;0,0576
1918,00;0,0576
1917,00;0,0576
1916,00;0,0576
1915,00;0,0576
1914,00;0,0576
1913,00;0,0577
1912,00;0,0577
1911,00;0,0577
1910,00;0,0577
1909,00;0,0577
1908,00;0,0577
1907,00;0,0577
1906,00;0,0577
1905,00;0,0577
1904,00;0,0577
1903,00;0,0577
1902,00;0,0577
1901,00;0,0577
1900,00;0,0577
1899,00;0,0577
1898,00;0,0577
1897,00;0,0578
1896,00;0,0578
1895,00;0,0578
1894,00;0,0578
1893,00;0,0578
1892,00;0,0578
1891,00;0,0578
1890,00;0,0578
1889,00;0,0578
1888,00;0,0578
1887,00;0,0578
1886,00;0,0578
1885,00;0,0578
1884,00;0,0578
1883,00;0,0578
1882,00;0,0578
1881,00;0,0578
1880,00;0,0578
1879,00;0,0578
1878,00;0,0578
1877,00;0,0578
1876,00;0,0578
1875,00;0,0578
1874,00;0,0578
1873,00;0,0578
1872,00;0,0578
1871,00;0,0578
1870,00;0,0577
1869,00;0,0577
1868,00;0,0577
1867,00;0,0577
1866,00;0,0577
1865,00;0,0577
1864,00;0,0578
1863,00;0,0578
1862,00;0,0578
1861,00;0,0579
1860,00;0,0579
1859,00;0,0579
1858,00;0,0578
1857,00;0,0578
1856,00;0,0578
1855,00;0,0577
1854,00;0,0577
1853,00;0,0577
1852,00;0,0577
1851,00;0,0577
1850,00;0,0577
1849,00;0,0577
1848,00;0,0577
1847,00;0,0577
1846,00;0,0577
1845,00;0,0577
1844,00;0,0577
1843,00;0,0577
1842,00;0,0577
1841,00;0,0577
1840,00;0,0577
1839,00;0,0577
1838,00;0,0577
1837,00;0,0577
1836,00;0,0577
1835,00;0,0577
1834,00;0,0577
1833,00;0,0577
1832,00;0,0577
1831,00;0,0577
1830,00;0,0577
1829,00;0,0577
1828,00;0,0577
1827,00;0,0577
1826,00;0,0577
1825,00;0,0577
1824,00;0,0577
1823,00;0,0577
1822,00;0,0577
1821,00;0,0577
1820,00;0,0577
1819,00;0,0577
1818,00;0,0576
1817,00;0,0576
1816,00;0,0576
1815,00;0,0576
1814,00;0,0576
1813,00;0,0576
1812,00;0,0577
1811,00;0,0577
1810,00;0,0577
1809,00;0,0577
1808,00;0,0577
1807,00;0,0577
1806,00;0,0576
1805,00;0,0576
1804,00;0,0576
1803,00;0,0577
1802,00;0,0577
1801,00;0,0577
1800,00;0,0577
1799,00;0,0577
1798,00;0,0577
1797,00;0,0577
1796,00;0,0577
1795,00;0,0577
1794,00;0,0576
1793,00;0,0576
1792,00;0,0576
1791,00;0,0577
1790,00;0,0577
1789,00;0,0577
1788,00;0,0577
1787,00;0,0577
1786,00;0,0577
1785,00;0,0577
1784,00;0,0577
1783,00;0,0577
1782,00;0,0577
1781,00;0,0576
1780,00;0,0576
1779,00;0,0576
1778,00;0,0576
1777,00;0,0575
1776,00;0,0575
1775,00;0,0575
1774,00;0,0575
1773,00;0,0575
1772,00;0,0575
1771,00;0,0575
1770,00;0,0575
1769,00;0,0575
1768,00;0,0575
1767,00;0,0575
1766,00;0,0575
1765,00;0,0575
1764,00;0,0575
1763,00;0,0575
1762,00;0,0575
1761,00;0,0576
1760,00;0,0576
1759,00;0,0576
1758,00;0,0575
1757,00;0,0574
1756,00;0,0574
1755,00;0,0574
1754,00;0,0574
1753,00;0,0574
1752,00;0,0574
1751,00;0,0573
1750,00;0,0573
1749,00;0,0572
1748,00;0,0572
1747,00;0,0572
1746,00;0,0573
1745,00;0,0573
1744,00;0,0573
1743,00;0,0573
1742,00;0,0573
1741,00;0,0573
1740,00;0,0573
1739,00;0,0573
1738,00;0,0573
1737,00;0,0573
1736,00;0,0573
1735,00;0,0573
1734,00;0,0574
1733,00;0,0575
1732,00;0,0575
1731,00;0,0576
1730,00;0,0576
1729,00;0,0577
1728,00;0,0577
1727,00;0,0577
1726,00;0,0577
1725,00;0,0577
1724,00;0,0578
1723,00;0,0578
1722,00;0,0579
1721,00;0,0579
1720,00;0,0579
1719,00;0,0579
1718,00;0,0579
1717,00;0,0579
1716,00;0,0580
1715,00;0,0580
1714,00;0,0581
1713,00;0,0582
1712,00;0,0583
1711,00;0,0583
1710,00;0,0584
1709,00;0,0584
1708,00;0,0585
1707,00;0,0585
1706,00;0,0586
1705,00;0,0586
1704,00;0,0587
1703,00;0,0588
1702,00;0,0588
1701,00;0,0588
1700,00;0,0589
1699,00;0,0589
1698,00;0,0590
1697,00;0,0590
1696,00;0,0590
1695,00;0,0589
1694,00;0,0590
1693,00;0,0590
1692,00;0,0590
1691,00;0,0590
1690,00;0,0590
1689,00;0,0590
1688,00;0,0590
1687,00;0,0590
1686,00;0,0590
1685,00;0,0590
1684,00;0,0590
1683,00;0,0590
1682,00;0,0590
1681,00;0,0590
1680,00;0,0590
1679,00;0,0590
1678,00;0,0590
1677,00;0,0590
1676,00;0,0590
1675,00;0,0590
1674,00;0,0589
1673,00;0,0589
1672,00;0,0589
1671,00;0,0589
1670,00;0,0588
1669,00;0,0588
1668,00;0,0588
1667,00;0,0589
1666,00;0,0589
1665,00;0,0589
1664,00;0,0589
1663,00;0,0589
1662,00;0,0589
1661,00;0,0589
1660,00;0,0589
1659,00;0,0588
1658,00;0,0588
1657,00;0,0588
1656,00;0,0588
1655,00;0,0588
1654,00;0,0588
1653,00;0,0588
1652,00;0,0588
1651,00;0,0588
1650,00;0,0588
1649,00;0,0588
1648,00;0,0588
1647,00;0,0588
1646,00;0,0588
1645,00;0,0588
1644,00;0,0588
1643,00;0,0589
1642,00;0,0589
1641,00;0,0589
1640,00;0,0589
1639,00;0,0588
1638,00;0,0588
1637,00;0,0588
1636,00;0,0589
1635,00;0,0589
1634,00;0,0590
1633,00;0,0590
1632,00;0,0590
1631,00;0,0591
1630,00;0,0591
1629,00;0,0591
1628,00;0,0592
1627,00;0,0592
1626,00;0,0592
1625,00;0,0592
1624,00;0,0593
1623,00;0,0593
1622,00;0,0593
1621,00;0,0594
1620,00;0,0594
1619,00;0,0594
1618,00;0,0595
1617,00;0,0595
1616,00;0,0595
1615,00;0,0596
1614,00;0,0596
1613,00;0,0597
1612,00;0,0597
1611,00;0,0598
1610,00;0,0598
1609,00;0,0598
1608,00;0,0599
1607,00;0,0599
1606,00;0,0599
1605,00;0,0600
1604,00;0,0600
1603,00;0,0601
1602,00;0,0602
1601,00;0,0602
1600,00;0,0602
1599,00;0,0603
1598,00;0,0603
1597,00;0,0603
1596,00;0,0604
1595,00;0,0604
1594,00;0,0605
1593,00;0,0605
1592,00;0,0606
1591,00;0,0606
1590,00;0,0606
1589,00;0,0607
1588,00;0,0607
1587,00;0,0607
1586,00;0,0608
1585,00;0,0608
1584,00;0,0608
1583,00;0,0609
1582,00;0,0609
1581,00;0,0609
1580,00;0,0610
1579,00;0,0610
1578,00;0,0611
1577,00;0,0611
1576,00;0,0611
1575,00;0,0612
1574,00;0,0612
1573,00;0,0612
1572,00;0,0613
1571,00;0,0613
1570,00;0,0614
1569,00;0,0614
1568,00;0,0614
1567,00;0,0614
1566,00;0,0615
1565,00;0,0615
1564,00;0,0615
1563,00;0,0615
1562,00;0,0616
1561,00;0,0616
1560,00;0,0616
1559,00;0,0616
1558,00;0,0617
1557,00;0,0617
1556,00;0,0618
1555,00;0,0618
1554,00;0,0618
1553,00;0,0618
1552,00;0,0618
1551,00;0,0618
1550,00;0,0619
1549,00;0,0620
1548,00;0,0620
1547,00;0,0620
1546,00;0,0621
1545,00;0,0621
1544,00;0,0621
1543,00;0,0622
1542,00;0,0623
1541,00;0,0623
1540,00;0,0623
1539,00;0,0623
1538,00;0,0623
1537,00;0,0623
1536,00;0,0624
1535,00;0,0624
1534,00;0,0624
1533,00;0,0624
1532,00;0,0624
1531,00;0,0624
1530,00;0,0624
1529,00;0,0624
1528,00;0,0623
1527,00;0,0623
1526,00;0,0623
1525,00;0,0624
1524,00;0,0624
1523,00;0,0624
1522,00;0,0623
1521,00;0,0623
1520,00;0,0622
1519,00;0,0622
1518,00;0,0622
1517,00;0,0622
1516,00;0,0622
1515,00;0,0622
1514,00;0,0622
1513,00;0,0622
1512,00;0,0621
1511,00;0,0621
1510,00;0,0621
1509,00;0,0621
1508,00;0,0620
1507,00;0,0620
1506,00;0,0619
1505,00;0,0619
1504,00;0,0619
1503,00;0,0619
1502,00;0,0618
1501,00;0,0618
1500,00;0,0618
1499,00;0,0617
1498,00;0,0616
1497,00;0,0615
1496,00;0,0615
1495,00;0,0615
1494,00;0,0615
1493,00;0,0615
1492,00;0,0614
1491,00;0,0613
1490,00;0,0612
1489,00;0,0612
1488,00;0,0611
1487,00;0,0611
1486,00;0,0611
1485,00;0,0611
1484,00;0,0611
1483,00;0,0611
1482,00;0,0610
1481,00;0,0610
1480,00;0,0609
1479,00;0,0609
1478,00;0,0609
1477,00;0,0608
1476,00;0,0608
1475,00;0,0607
1474,00;0,0607
1473,00;0,0607
1472,00;0,0606
1471,00;0,0606
1470,00;0,0606
1469,00;0,0606
1468,00;0,0606
1467,00;0,0606
1466,00;0,0607
1465,00;0,0607
1464,00;0,0607
1463,00;0,0607
1462,00;0,0606
1461,00;0,0606
1460,00;0,0606
1459,00;0,0606
1458,00;0,0607
1457,00;0,0607
1456,00;0,0607
1455,00;0,0607
1454,00;0,0608
1453,00;0,0608
1452,00;0,0608
1451,00;0,0608
1450,00;0,0608
1449,00;0,0608
1448,00;0,0608
1447,00;0,0608
1446,00;0,0609
1445,00;0,0609
1444,00;0,0609
1443,00;0,0609
1442,00;0,0609
1441,00;0,0610
1440,00;0,0610
1439,00;0,0610
1438,00;0,0610
1437,00;0,0610
1436,00;0,0610
1435,00;0,0611
1434,00;0,0611
1433,00;0,0612
1432,00;0,0612
1431,00;0,0612
1430,00;0,0612
1429,00;0,0612
1428,00;0,0612
1427,00;0,0613
1426,00;0,0613
1425,00;0,0613
1424,00;0,0613
1423,00;0,0613
1422,00;0,0614
1421,00;0,0614
1420,00;0,0614
1419,00;0,0614
1418,00;0,0615
1417,00;0,0615
1416,00;0,0616
1415,00;0,0616
1414,00;0,0616
1413,00;0,0616
1412,00;0,0617
1411,00;0,0617
1410,00;0,0617
1409,00;0,0618
1408,00;0,0618
1407,00;0,0618
1406,00;0,0618
1405,00;0,0618
1404,00;0,0618
1403,00;0,0619
1402,00;0,0619
1401,00;0,0620
1400,00;0,0620
1399,00;0,0620
1398,00;0,0620
1397,00;0,0620
1396,00;0,0620
1395,00;0,0620
1394,00;0,0620
1393,00;0,0620
1392,00;0,0620
1391,00;0,0620
1390,00;0,0620
1389,00;0,0621
1388,00;0,0620
1387,00;0,0620
1386,00;0,0620
1385,00;0,0620
1384,00;0,0620
1383,00;0,0620
1382,00;0,0620
1381,00;0,0620
1380,00;0,0620
1379,00;0,0620
1378,00;0,0619
1377,00;0,0619
1376,00;0,0619
1375,00;0,0619
1374,00;0,0618
1373,00;0,0618
1372,00;0,0618
1371,00;0,0618
1370,00;0,0618
1369,00;0,0617
1368,00;0,0617
1367,00;0,0616
1366,00;0,0616
1365,00;0,0615
1364,00;0,0615
1363,00;0,0615
1362,00;0,0615
1361,00;0,0614
1360,00;0,0614
1359,00;0,0613
1358,00;0,0613
1357,00;0,0613
1356,00;0,0612
1355,00;0,0612
1354,00;0,0612
1353,00;0,0612
1352,00;0,0612
1351,00;0,0611
1350,00;0,0611
1349,00;0,0610
1348,00;0,0610
1347,00;0,0610
1346,00;0,0609
1345,00;0,0609
1344,00;0,0608
1343,00;0,0608
1342,00;0,0608
1341,00;0,0607
1340,00;0,0607
1339,00;0,0607
1338,00;0,0606
1337,00;0,0606
1336,00;0,0606
1335,00;0,0605
1334,00;0,0605
1333,00;0,0604
1332,00;0,0604
1331,00;0,0604
1330,00;0,0603
1329,00;0,0603
1328,00;0,0602
1327,00;0,0602
1326,00;0,0602
1325,00;0,0601
1324,00;0,0601
1323,00;0,0601
1322,00;0,0600
1321,00;0,0600
1320,00;0,0599
1319,00;0,0599
1318,00;0,0599
1317,00;0,0598
1316,00;0,0598
1315,00;0,0598
1314,00;0,0597
1313,00;0,0597
1312,00;0,0596
1311,00;0,0596
1310,00;0,0596
1309,00;0,0595
1308,00;0,0595
1307,00;0,0595
1306,00;0,0594
1305,00;0,0594
1304,00;0,0593
1303,00;0,0593
1302,00;0,0592
1301,00;0,0592
1300,00;0,0592
1299,00;0,0591
1298,00;0,0591
1297,00;0,0590
1296,00;0,0590
1295,00;0,0590
1294,00;0,0589
1293,00;0,0589
1292,00;0,0589
1291,00;0,0588
1290,00;0,0588
1289,00;0,0587
1288,00;0,0587
1287,00;0,0587
1286,00;0,0586
1285,00;0,0586
1284,00;0,0586
1283,00;0,0585
1282,00;0,0585
1281,00;0,0584
1280,00;0,0584
1279,00;0,0584
1278,00;0,0583
1277,00;0,0583
1276,00;0,0583
1275,00;0,0583
1274,00;0,0583
1273,00;0,0582
1272,00;0,0582
1271,00;0,0581
1270,00;0,0581
1269,00;0,0580
1268,00;0,0580
1267,00;0,0580
1266,00;0,0580
1265,00;0,0580
1264,00;0,0580
1263,00;0,0580
1262,00;0,0579
1261,00;0,0578
1260,00;0,0577
1259,00;0,0577
1258,00;0,0577
1257,00;0,0577
1256,00;0,0577
1255,00;0,0576
1254,00;0,0576
1253,00;0,0576
1252,00;0,0575
1251,00;0,0575
1250,00;0,0575
1249,00;0,0575
1248,00;0,0575
1247,00;0,0574
1246,00;0,0574
1245,00;0,0573
1244,00;0,0572
1243,00;0,0572
1242,00;0,0572
1241,00;0,0573
1240,00;0,0573
1239,00;0,0573
1238,00;0,0573
1237,00;0,0574
1236,00;0,0574
1235,00;0,0573
1234,00;0,0573
1233,00;0,0573
1232,00;0,0574
1231,00;0,0574
1230,00;0,0574
1229,00;0,0574
1228,00;0,0575
1227,00;0,0575
1226,00;0,0576
1225,00;0,0577
1224,00;0,0578
1223,00;0,0579
1222,00;0,0579
1221,00;0,0579
1220,00;0,0580
1219,00;0,0581
1218,00;0,0582
1217,00;0,0583
1216,00;0,0585
1215,00;0,0586
1214,00;0,0588
1213,00;0,0589
1212,00;0,0591
1211,00;0,0593
1210,00;0,0594
1209,00;0,0595
1208,00;0,0596
1207,00;0,0597
1206,00;0,0599
1205,00;0,0600
1204,00;0,0602
1203,00;0,0604
1202,00;0,0606
1201,00;0,0608
1200,00;0,0610
1199,00;0,0611
1198,00;0,0612
1197,00;0,0614
1196,00;0,0616
1195,00;0,0618
1194,00;0,0620
1193,00;0,0622
1192,00;0,0625
1191,00;0,0627
1190,00;0,0629
1189,00;0,0631
1188,00;0,0632
1187,00;0,0635
1186,00;0,0637
1185,00;0,0639
1184,00;0,0642
1183,00;0,0644
1182,00;0,0647
1181,00;0,0650
1180,00;0,0652
1179,00;0,0655
1178,00;0,0658
1177,00;0,0660
1176,00;0,0663
1175,00;0,0665
1174,00;0,0667
1173,00;0,0670
1172,00;0,0673
1171,00;0,0676
1170,00;0,0678
1169,00;0,0681
1168,00;0,0684
1167,00;0,0687
1166,00;0,0690
1165,00;0,0692
1164,00;0,0695
1163,00;0,0698
1162,00;0,0700
1161,00;0,0703
1160,00;0,0705
1159,00;0,0708
1158,00;0,0711
1157,00;0,0714
1156,00;0,0717
1155,00;0,0720
1154,00;0,0722
1153,00;0,0724
1152,00;0,0726
1151,00;0,0728
1150,00;0,0730
1149,00;0,0731
1148,00;0,0733
1147,00;0,0734
1146,00;0,0735
1145,00;0,0737
1144,00;0,0738
1143,00;0,0738
1142,00;0,0739
1141,00;0,0740
1140,00;0,0742
1139,00;0,0743
1138,00;0,0744
1137,00;0,0745
1136,00;0,0746
1135,00;0,0747
1134,00;0,0748
1133,00;0,0749
1132,00;0,0750
1131,00;0,0751
1130,00;0,0751
1129,00;0,0752
1128,00;0,0752
1127,00;0,0752
1126,00;0,0752
1125,00;0,0752
1124,00;0,0752
1123,00;0,0752
1122,00;0,0752
1121,00;0,0753
1120,00;0,0753
1119,00;0,0752
1118,00;0,0752
1117,00;0,0752
1116,00;0,0753
1115,00;0,0753
1114,00;0,0754
1113,00;0,0754
1112,00;0,0754
1111,00;0,0754
1110,00;0,0754
1109,00;0,0754
1108,00;0,0754
1107,00;0,0754
1106,00;0,0753
1105,00;0,0753
1104,00;0,0753
1103,00;0,0752
1102,00;0,0753
1101,00;0,0753
1100,00;0,0754
1099,00;0,0755
1098,00;0,0755
1097,00;0,0756
1096,00;0,0757
1095,00;0,0758
1094,00;0,0759
1093,00;0,0760
1092,00;0,0760
1091,00;0,0761
1090,00;0,0761
1089,00;0,0762
1088,00;0,0763
1087,00;0,0764
1086,00;0,0765
1085,00;0,0766
1084,00;0,0767
1083,00;0,0769
1082,00;0,0770
1081,00;0,0771
1080,00;0,0772
1079,00;0,0773
1078,00;0,0773
1077,00;0,0774
1076,00;0,0775
1075,00;0,0776
1074,00;0,0777
1073,00;0,0778
1072,00;0,0779
1071,00;0,0780
1070,00;0,0780
1069,00;0,0780
1068,00;0,0781
1067,00;0,0782
1066,00;0,0783
1065,00;0,0784
1064,00;0,0785
1063,00;0,0785
1062,00;0,0785
1061,00;0,0785
1060,00;0,0785
1059,00;0,0784
1058,00;0,0784
1057,00;0,0784
1056,00;0,0785
1055,00;0,0786
1054,00;0,0786
1053,00;0,0786
1052,00;0,0786
1051,00;0,0786
1050,00;0,0785
1049,00;0,0785
1048,00;0,0785
1047,00;0,0784
1046,00;0,0784
1045,00;0,0783
1044,00;0,0783
1043,00;0,0783
1042,00;0,0782
1041,00;0,0781
1040,00;0,0780
1039,00;0,0779
1038,00;0,0778
1037,00;0,0776
1036,00;0,0775
1035,00;0,0774
1034,00;0,0773
1033,00;0,0771
1032,00;0,0769
1031,00;0,0767
1030,00;0,0766
1029,00;0,0764
1028,00;0,0763
1027,00;0,0762
1026,00;0,0761
1025,00;0,0760
1024,00;0,0758
1023,00;0,0756
1022,00;0,0754
1021,00;0,0753
1020,00;0,0752
1019,00;0,0751
1018,00;0,0749
1017,00;0,0747
1016,00;0,0745
1015,00;0,0743
1014,00;0,0742
1013,00;0,0740
1012,00;0,0739
1011,00;0,0739
1010,00;0,0738
1009,00;0,0738
1008,00;0,0740
1007,00;0,0741
1006,00;0,0742
1005,00;0,0744
1004,00;0,0744
1003,00;0,0745
1002,00;0,0747
1001,00;0,0749
1000,00;0,0752
999,00;0,0755
998,00;0,0758
997,00;0,0760
996,00;0,0762
995,00;0,0763
994,00;0,0763
993,00;0,0763
992,00;0,0763
991,00;0,0762
990,00;0,0761
989,00;0,0760
988,00;0,0759
987,00;0,0758
986,00;0,0757
985,00;0,0756
984,00;0,0755
983,00;0,0754
982,00;0,0753
981,00;0,0752
980,00;0,0751
979,00;0,0751
978,00;0,0751
977,00;0,0750
976,00;0,0750
975,00;0,0749
974,00;0,0748
973,00;0,0747
972,00;0,0746
971,00;0,0745
970,00;0,0744
969,00;0,0743
968,00;0,0743
967,00;0,0742
966,00;0,0741
965,00;0,0740
964,00;0,0738
963,00;0,0737
962,00;0,0737
961,00;0,0736
960,00;0,0736
959,00;0,0735
958,00;0,0734
957,00;0,0733
956,00;0,0732
955,00;0,0731
954,00;0,0729
953,00;0,0728
952,00;0,0727
951,00;0,0726
950,00;0,0725
949,00;0,0724
948,00;0,0723
947,00;0,0722
946,00;0,0722
945,00;0,0721
944,00;0,0720
943,00;0,0719
942,00;0,0718
941,00;0,0717
940,00;0,0716
939,00;0,0715
938,00;0,0715
937,00;0,0714
936,00;0,0713
935,00;0,0712
934,00;0,0711
933,00;0,0710
932,00;0,0710
931,00;0,0709
930,00;0,0708
929,00;0,0707
928,00;0,0706
927,00;0,0705
926,00;0,0705
925,00;0,0704
924,00;0,0703
923,00;0,0703
922,00;0,0702
921,00;0,0702
920,00;0,0701
919,00;0,0700
918,00;0,0700
917,00;0,0699
916,00;0,0699
915,00;0,0698
914,00;0,0697
913,00;0,0697
912,00;0,0696
911,00;0,0695
910,00;0,0695
909,00;0,0694
908,00;0,0693
907,00;0,0693
906,00;0,0692
905,00;0,0692
904,00;0,0691
903,00;0,0691
902,00;0,0690
901,00;0,0689
900,00;0,0689
899,00;0,0688
898,00;0,0688
897,00;0,0687
896,00;0,0686
895,00;0,0685
894,00;0,0685
893,00;0,0684
892,00;0,0683
891,00;0,0683
890,00;0,0682
889,00;0,0682
888,00;0,0682
887,00;0,0681
886,00;0,0681
885,00;0,0680
884,00;0,0679
883,00;0,0679
882,00;0,0678
881,00;0,0677
880,00;0,0676
879,00;0,0676
878,00;0,0675
877,00;0,0674
876,00;0,0674
875,00;0,0673
874,00;0,0672
873,00;0,0672
872,00;0,0671
871,00;0,0670
870,00;0,0669
869,00;0,0669
868,00;0,0668
867,00;0,0667
866,00;0,0667
865,00;0,0666
864,00;0,0665
863,00;0,0664
862,00;0,0664
861,00;0,0663
860,00;0,0663
859,00;0,0662
858,00;0,0661
857,00;0,0660
856,00;0,0659
855,00;0,0658
854,00;0,0658
853,00;0,0657
852,00;0,0656
851,00;0,0655
850,00;0,0654
849,00;0,0654
848,00;0,0653
847,00;0,0653
846,00;0,0652
845,00;0,0651
844,00;0,0651
843,00;0,0650
842,00;0,0649
841,00;0,0648
840,00;0,0647
839,00;0,0646
838,00;0,0646
837,00;0,0645
836,00;0,0644
835,00;0,0643
834,00;0,0643
833,00;0,0642
832,00;0,0641
831,00;0,0641
830,00;0,0640
829,00;0,0639
828,00;0,0639
827,00;0,0638
826,00;0,0637
825,00;0,0637
824,00;0,0636
823,00;0,0635
822,00;0,0635
821,00;0,0634
820,00;0,0633
819,00;0,0632
818,00;0,0631
817,00;0,0631
816,00;0,0630
815,00;0,0629
814,00;0,0628
813,00;0,0627
812,00;0,0627
811,00;0,0626
810,00;0,0625
809,00;0,0624
808,00;0,0624
807,00;0,0623
806,00;0,0622
805,00;0,0621
804,00;0,0621
803,00;0,0620
802,00;0,0619
801,00;0,0618
800,00;0,0617
799,00;0,0616
798,00;0,0616
797,00;0,0615
796,00;0,0614
795,00;0,0613
794,00;0,0612
793,00;0,0612
792,00;0,0611
791,00;0,0610
790,00;0,0609
789,00;0,0609
788,00;0,0608
787,00;0,0607
786,00;0,0606
785,00;0,0604
784,00;0,0603
783,00;0,0602
782,00;0,0601
781,00;0,0601
780,00;0,0601
779,00;0,0601
778,00;0,0600
777,00;0,0599
776,00;0,0597
775,00;0,0597
774,00;0,0596
773,00;0,0596
772,00;0,0595
771,00;0,0593
770,00;0,0591
769,00;0,0590
768,00;0,0590
767,00;0,0589
766,00;0,0589
765,00;0,0588
764,00;0,0587
763,00;0,0586
762,00;0,0586
761,00;0,0585
760,00;0,0585
759,00;0,0584
758,00;0,0583
757,00;0,0582
756,00;0,0580
755,00;0,0579
754,00;0,0578
753,00;0,0577
752,00;0,0576
751,00;0,0575
750,00;0,0575
749,00;0,0574
748,00;0,0574
747,00;0,0574
746,00;0,0573
745,00;0,0572
744,00;0,0571
743,00;0,0571
742,00;0,0572
741,00;0,0573
740,00;0,0573
739,00;0,0573
738,00;0,0572
737,00;0,0572
736,00;0,0571
735,00;0,0571
734,00;0,0571
733,00;0,0571
732,00;0,0573
731,00;0,0575
730,00;0,0576
729,00;0,0576
728,00;0,0574
727,00;0,0572
726,00;0,0570
725,00;0,0570
724,00;0,0571
723,00;0,0572
722,00;0,0573
721,00;0,0574
720,00;0,0575
719,00;0,0575
718,00;0,0575
717,00;0,0574
716,00;0,0573
715,00;0,0573
714,00;0,0573
713,00;0,0573
712,00;0,0573
711,00;0,0574
710,00;0,0574
709,00;0,0574
708,00;0,0573
707,00;0,0571
706,00;0,0570
705,00;0,0570
704,00;0,0570
703,00;0,0572
702,00;0,0573
701,00;0,0573
700,00;0,0573
699,00;0,0573
698,00;0,0572
697,00;0,0571
696,00;0,0570
695,00;0,0569
694,00;0,0569
693,00;0,0571
692,00;0,0573
691,00;0,0576
690,00;0,0577
689,00;0,0578
688,00;0,0580
687,00;0,0582
686,00;0,0585
685,00;0,0587
684,00;0,0588
683,00;0,0589
682,00;0,0589
681,00;0,0590
680,00;0,0590
679,00;0,0589
678,00;0,0588
677,00;0,0588
676,00;0,0589
675,00;0,0590
674,00;0,0591
673,00;0,0591
672,00;0,0591
671,00;0,0589
670,00;0,0586
669,00;0,0584
668,00;0,0584
667,00;0,0585
666,00;0,0585
665,00;0,0583
664,00;0,0580
663,00;0,0577
662,00;0,0575
661,00;0,0573
660,00;0,0573
659,00;0,0573
658,00;0,0573
657,00;0,0573
656,00;0,0573
655,00;0,0572
654,00;0,0571
653,00;0,0570
652,00;0,0570
651,00;0,0571
650,00;0,0572
649,00;0,0573
648,00;0,0573
647,00;0,0573
646,00;0,0573
645,00;0,0575
644,00;0,0576
643,00;0,0578
642,00;0,0580
641,00;0,0584
640,00;0,0587
639,00;0,0589
638,00;0,0590
637,00;0,0591
636,00;0,0594
635,00;0,0596
634,00;0,0599
633,00;0,0601
632,00;0,0605
631,00;0,0609
630,00;0,0612
629,00;0,0613
628,00;0,0614
627,00;0,0615
626,00;0,0618
625,00;0,0619
624,00;0,0621
623,00;0,0622
622,00;0,0625
621,00;0,0628
620,00;0,0631
619,00;0,0634
618,00;0,0637
617,00;0,0639
616,00;0,0641
615,00;0,0644
614,00;0,0649
613,00;0,0656
612,00;0,0664
611,00;0,0672
610,00;0,0679
609,00;0,0687
608,00;0,0697
607,00;0,0708
606,00;0,0718
605,00;0,0728
604,00;0,0737
603,00;0,0746
602,00;0,0756
601,00;0,0767
600,00;0,0778
599,00;0,0787
598,00;0,0794
597,00;0,0801
596,00;0,0807
595,00;0,0811
594,00;0,0814
593,00;0,0817
592,00;0,0820
591,00;0,0824
590,00;0,0828
589,00;0,0833
588,00;0,0837
587,00;0,0840
586,00;0,0844
585,00;0,0849
584,00;0,0857
583,00;0,0865
582,00;0,0872
581,00;0,0878
580,00;0,0882
579,00;0,0885
578,00;0,0888
577,00;0,0893
576,00;0,0901
575,00;0,0911
574,00;0,0921
573,00;0,0930
572,00;0,0940
571,00;0,0948
570,00;0,0954
569,00;0,0962
568,00;0,0972
567,00;0,0983
566,00;0,0994
565,00;0,1005
564,00;0,1018
563,00;0,1031
562,00;0,1044
561,00;0,1056
560,00;0,1067
559,00;0,1075
558,00;0,1080
557,00;0,1084
556,00;0,1088
555,00;0,1091
554,00;0,1093
553,00;0,1095
552,00;0,1097
551,00;0,1098
550,00;0,1098
549,00;0,1100
548,00;0,1103
547,00;0,1104
546,00;0,1101
545,00;0,1098
544,00;0,1095
543,00;0,1092
542,00;0,1088
541,00;0,1084
540,00;0,1081
539,00;0,1076
538,00;0,1069
537,00;0,1062
536,00;0,1055
535,00;0,1047
534,00;0,1037
533,00;0,1028
532,00;0,1021
531,00;0,1012
530,00;0,1001
529,00;0,0988
528,00;0,0975
527,00;0,0962
526,00;0,0952
525,00;0,0945
524,00;0,0940
523,00;0,0935
522,00;0,0929
521,00;0,0921
520,00;0,0911
519,00;0,0898
518,00;0,0886
517,00;0,0877
516,00;0,0870
515,00;0,0861
514,00;0,0850
513,00;0,0839
512,00;0,0830
511,00;0,0820
510,00;0,0809
509,00;0,0799
508,00;0,0789
507,00;0,0780
506,00;0,0771
505,00;0,0763
504,00;0,0757
503,00;0,0749
502,00;0,0740
501,00;0,0732
500,00;0,0727
499,00;0,0723
498,00;0,0718
497,00;0,0712
496,00;0,0705
495,00;0,0696
494,00;0,0689
493,00;0,0683
492,00;0,0678
491,00;0,0671
490,00;0,0665
489,00;0,0661
488,00;0,0658
487,00;0,0653
486,00;0,0646
485,00;0,0640
484,00;0,0635
483,00;0,0631
482,00;0,0629
481,00;0,0628
480,00;0,0629
479,00;0,0627
478,00;0,0621
477,00;0,0617
476,00;0,0617
475,00;0,0620
474,00;0,0622
473,00;0,0622
472,00;0,0618
471,00;0,0610
470,00;0,0601
469,00;0,0596
468,00;0,0595
467,00;0,0595
466,00;0,0595
465,00;0,0594
464,00;0,0593
463,00;0,0589
462,00;0,0586
461,00;0,0585
460,00;0,0585
459,00;0,0583
458,00;0,0577
457,00;0,0571
456,00;0,0569
455,00;0,0571
454,00;0,0573
453,00;0,0575
452,00;0,0577
451,00;0,0578
450,00;0,0579
