Создан как новый массив данных;Образец 013 полученный BalashovM Дата пятница, марта 03 2023
cm-1;A
4000,00;0,0493
3999,00;0,0493
3998,00;0,0492
3997,00;0,0492
3996,00;0,0492
3995,00;0,0492
3994,00;0,0493
3993,00;0,0493
3992,00;0,0493
3991,00;0,0493
3990,00;0,0493
3989,00;0,0493
3988,00;0,0493
3987,00;0,0493
3986,00;0,0493
3985,00;0,0493
3984,00;0,0493
3983,00;0,0493
3982,00;0,0493
3981,00;0,0493
3980,00;0,0493
3979,00;0,0493
3978,00;0,0493
3977,00;0,0493
3976,00;0,0493
3975,00;0,0493
3974,00;0,0493
3973,00;0,0493
3972,00;0,0493
3971,00;0,0493
3970,00;0,0493
3969,00;0,0493
3968,00;0,0493
3967,00;0,0493
3966,00;0,0493
3965,00;0,0493
3964,00;0,0493
3963,00;0,0494
3962,00;0,0494
3961,00;0,0494
3960,00;0,0494
3959,00;0,0494
3958,00;0,0494
3957,00;0,0494
3956,00;0,0494
3955,00;0,0494
3954,00;0,0494
3953,00;0,0494
3952,00;0,0494
3951,00;0,0494
3950,00;0,0494
3949,00;0,0494
3948,00;0,0494
3947,00;0,0494
3946,00;0,0494
3945,00;0,0494
3944,00;0,0494
3943,00;0,0494
3942,00;0,0494
3941,00;0,0494
3940,00;0,0494
3939,00;0,0494
3938,00;0,0494
3937,00;0,0494
3936,00;0,0494
3935,00;0,0494
3934,00;0,0494
3933,00;0,0494
3932,00;0,0494
3931,00;0,0494
3930,00;0,0494
3929,00;0,0494
3928,00;0,0494
3927,00;0,0494
3926,00;0,0494
3925,00;0,0494
3924,00;0,0494
3923,00;0,0494
3922,00;0,0494
3921,00;0,0494
3920,00;0,0495
3919,00;0,0495
3918,00;0,0495
3917,00;0,0495
3916,00;0,0495
3915,00;0,0495
3914,00;0,0495
3913,00;0,0495
3912,00;0,0495
3911,00;0,0495
3910,00;0,0495
3909,00;0,0495
3908,00;0,0495
3907,00;0,0495
3906,00;0,0495
3905,00;0,0495
3904,00;0,0495
3903,00;0,0495
3902,00;0,0495
3901,00;0,0495
3900,00;0,0495
3899,00;0,0495
3898,00;0,0495
3897,00;0,0495
3896,00;0,0495
3895,00;0,0495
3894,00;0,0495
3893,00;0,0495
3892,00;0,0495
3891,00;0,0495
3890,00;0,0495
3889,00;0,0495
3888,00;0,0495
3887,00;0,0495
3886,00;0,0495
3885,00;0,0495
3884,00;0,0495
3883,00;0,0495
3882,00;0,0495
3881,00;0,0495
3880,00;0,0495
3879,00;0,0495
3878,00;0,0495
3877,00;0,0495
3876,00;0,0495
3875,00;0,0495
3874,00;0,0495
3873,00;0,0495
3872,00;0,0495
3871,00;0,0495
3870,00;0,0495
3869,00;0,0495
3868,00;0,0495
3867,00;0,0495
3866,00;0,0495
3865,00;0,0495
3864,00;0,0495
3863,00;0,0495
3862,00;0,0495
3861,00;0,0495
3860,00;0,0495
3859,00;0,0495
3858,00;0,0495
3857,00;0,0496
3856,00;0,0496
3855,00;0,0496
3854,00;0,0496
3853,00;0,0496
3852,00;0,0496
3851,00;0,0496
3850,00;0,0496
3849,00;0,0496
3848,00;0,0496
3847,00;0,0496
3846,00;0,0496
3845,00;0,0496
3844,00;0,0496
3843,00;0,0496
3842,00;0,0496
3841,00;0,0496
3840,00;0,0496
3839,00;0,0496
3838,00;0,0496
3837,00;0,0496
3836,00;0,0496
3835,00;0,0496
3834,00;0,0496
3833,00;0,0496
3832,00;0,0496
3831,00;0,0496
3830,00;0,0496
3829,00;0,0496
3828,00;0,0496
3827,00;0,0496
3826,00;0,0496
3825,00;0,0496
3824,00;0,0496
3823,00;0,0496
3822,00;0,0496
3821,00;0,0496
3820,00;0,0496
3819,00;0,0496
3818,00;0,0496
3817,00;0,0496
3816,00;0,0496
3815,00;0,0496
3814,00;0,0496
3813,00;0,0496
3812,00;0,0496
3811,00;0,0496
3810,00;0,0496
3809,00;0,0496
3808,00;0,0496
3807,00;0,0496
3806,00;0,0496
3805,00;0,0496
3804,00;0,0496
3803,00;0,0496
3802,00;0,0496
3801,00;0,0496
3800,00;0,0496
3799,00;0,0496
3798,00;0,0496
3797,00;0,0496
3796,00;0,0496
3795,00;0,0496
3794,00;0,0496
3793,00;0,0496
3792,00;0,0496
3791,00;0,0496
3790,00;0,0496
3789,00;0,0496
3788,00;0,0496
3787,00;0,0496
3786,00;0,0496
3785,00;0,0496
3784,00;0,0496
3783,00;0,0496
3782,00;0,0495
3781,00;0,0495
3780,00;0,0495
3779,00;0,0495
3778,00;0,0495
3777,00;0,0495
3776,00;0,0495
3775,00;0,0495
3774,00;0,0495
3773,00;0,0495
3772,00;0,0495
3771,00;0,0495
3770,00;0,0495
3769,00;0,0495
3768,00;0,0495
3767,00;0,0495
3766,00;0,0495
3765,00;0,0495
3764,00;0,0495
3763,00;0,0495
3762,00;0,0495
3761,00;0,0495
3760,00;0,0495
3759,00;0,0495
3758,00;0,0495
3757,00;0,0495
3756,00;0,0495
3755,00;0,0495
3754,00;0,0495
3753,00;0,0495
3752,00;0,0495
3751,00;0,0495
3750,00;0,0495
3749,00;0,0495
3748,00;0,0495
3747,00;0,0495
3746,00;0,0495
3745,00;0,0495
3744,00;0,0495
3743,00;0,0495
3742,00;0,0495
3741,00;0,0495
3740,00;0,0495
3739,00;0,0495
3738,00;0,0495
3737,00;0,0494
3736,00;0,0494
3735,00;0,0494
3734,00;0,0494
3733,00;0,0494
3732,00;0,0494
3731,00;0,0494
3730,00;0,0494
3729,00;0,0494
3728,00;0,0494
3727,00;0,0494
3726,00;0,0494
3725,00;0,0494
3724,00;0,0494
3723,00;0,0494
3722,00;0,0494
3721,00;0,0494
3720,00;0,0494
3719,00;0,0494
3718,00;0,0494
3717,00;0,0493
3716,00;0,0493
3715,00;0,0493
3714,00;0,0493
3713,00;0,0493
3712,00;0,0493
3711,00;0,0493
3710,00;0,0493
3709,00;0,0493
3708,00;0,0493
3707,00;0,0493
3706,00;0,0493
3705,00;0,0493
3704,00;0,0493
3703,00;0,0493
3702,00;0,0493
3701,00;0,0493
3700,00;0,0493
3699,00;0,0493
3698,00;0,0492
3697,00;0,0492
3696,00;0,0492
3695,00;0,0492
3694,00;0,0492
3693,00;0,0493
3692,00;0,0493
3691,00;0,0493
3690,00;0,0493
3689,00;0,0493
3688,00;0,0493
3687,00;0,0493
3686,00;0,0493
3685,00;0,0493
3684,00;0,0493
3683,00;0,0493
3682,00;0,0493
3681,00;0,0493
3680,00;0,0493
3679,00;0,0493
3678,00;0,0493
3677,00;0,0493
3676,00;0,0493
3675,00;0,0493
3674,00;0,0493
3673,00;0,0493
3672,00;0,0493
3671,00;0,0493
3670,00;0,0493
3669,00;0,0493
3668,00;0,0493
3667,00;0,0493
3666,00;0,0493
3665,00;0,0493
3664,00;0,0493
3663,00;0,0493
3662,00;0,0493
3661,00;0,0493
3660,00;0,0493
3659,00;0,0493
3658,00;0,0493
3657,00;0,0493
3656,00;0,0493
3655,00;0,0493
3654,00;0,0493
3653,00;0,0493
3652,00;0,0493
3651,00;0,0493
3650,00;0,0493
3649,00;0,0493
3648,00;0,0493
3647,00;0,0493
3646,00;0,0493
3645,00;0,0493
3644,00;0,0493
3643,00;0,0493
3642,00;0,0493
3641,00;0,0493
3640,00;0,0492
3639,00;0,0492
3638,00;0,0492
3637,00;0,0493
3636,00;0,0493
3635,00;0,0493
3634,00;0,0493
3633,00;0,0493
3632,00;0,0492
3631,00;0,0493
3630,00;0,0493
3629,00;0,0493
3628,00;0,0493
3627,00;0,0493
3626,00;0,0493
3625,00;0,0493
3624,00;0,0493
3623,00;0,0493
3622,00;0,0493
3621,00;0,0493
3620,00;0,0493
3619,00;0,0493
3618,00;0,0493
3617,00;0,0493
3616,00;0,0493
3615,00;0,0493
3614,00;0,0493
3613,00;0,0493
3612,00;0,0493
3611,00;0,0493
3610,00;0,0494
3609,00;0,0494
3608,00;0,0494
3607,00;0,0494
3606,00;0,0494
3605,00;0,0494
3604,00;0,0494
3603,00;0,0494
3602,00;0,0494
3601,00;0,0494
3600,00;0,0494
3599,00;0,0494
3598,00;0,0494
3597,00;0,0494
3596,00;0,0495
3595,00;0,0495
3594,00;0,0495
3593,00;0,0495
3592,00;0,0495
3591,00;0,0495
3590,00;0,0495
3589,00;0,0495
3588,00;0,0496
3587,00;0,0496
3586,00;0,0496
3585,00;0,0496
3584,00;0,0496
3583,00;0,0496
3582,00;0,0496
3581,00;0,0496
3580,00;0,0496
3579,00;0,0496
3578,00;0,0496
3577,00;0,0496
3576,00;0,0496
3575,00;0,0496
3574,00;0,0496
3573,00;0,0496
3572,00;0,0497
3571,00;0,0497
3570,00;0,0497
3569,00;0,0497
3568,00;0,0497
3567,00;0,0497
3566,00;0,0497
3565,00;0,0497
3564,00;0,0497
3563,00;0,0498
3562,00;0,0498
3561,00;0,0498
3560,00;0,0498
3559,00;0,0498
3558,00;0,0498
3557,00;0,0498
3556,00;0,0498
3555,00;0,0499
3554,00;0,0499
3553,00;0,0499
3552,00;0,0499
3551,00;0,0499
3550,00;0,0499
3549,00;0,0499
3548,00;0,0499
3547,00;0,0500
3546,00;0,0500
3545,00;0,0500
3544,00;0,0500
3543,00;0,0500
3542,00;0,0500
3541,00;0,0500
3540,00;0,0500
3539,00;0,0501
3538,00;0,0501
3537,00;0,0501
3536,00;0,0501
3535,00;0,0501
3534,00;0,0501
3533,00;0,0501
3532,00;0,0501
3531,00;0,0501
3530,00;0,0502
3529,00;0,0502
3528,00;0,0502
3527,00;0,0502
3526,00;0,0502
3525,00;0,0502
3524,00;0,0502
3523,00;0,0502
3522,00;0,0503
3521,00;0,0503
3520,00;0,0503
3519,00;0,0503
3518,00;0,0503
3517,00;0,0503
3516,00;0,0503
3515,00;0,0503
3514,00;0,0504
3513,00;0,0504
3512,00;0,0504
3511,00;0,0504
3510,00;0,0504
3509,00;0,0504
3508,00;0,0504
3507,00;0,0504
3506,00;0,0505
3505,00;0,0505
3504,00;0,0505
3503,00;0,0505
3502,00;0,0505
3501,00;0,0505
3500,00;0,0505
3499,00;0,0505
3498,00;0,0505
3497,00;0,0505
3496,00;0,0506
3495,00;0,0506
3494,00;0,0506
3493,00;0,0506
3492,00;0,0506
3491,00;0,0506
3490,00;0,0506
3489,00;0,0506
3488,00;0,0506
3487,00;0,0506
3486,00;0,0506
3485,00;0,0506
3484,00;0,0506
3483,00;0,0507
3482,00;0,0507
3481,00;0,0507
3480,00;0,0507
3479,00;0,0507
3478,00;0,0507
3477,00;0,0507
3476,00;0,0507
3475,00;0,0507
3474,00;0,0508
3473,00;0,0508
3472,00;0,0508
3471,00;0,0508
3470,00;0,0508
3469,00;0,0508
3468,00;0,0508
3467,00;0,0508
3466,00;0,0508
3465,00;0,0508
3464,00;0,0509
3463,00;0,0509
3462,00;0,0509
3461,00;0,0509
3460,00;0,0509
3459,00;0,0509
3458,00;0,0509
3457,00;0,0509
3456,00;0,0509
3455,00;0,0509
3454,00;0,0510
3453,00;0,0510
3452,00;0,0510
3451,00;0,0510
3450,00;0,0510
3449,00;0,0510
3448,00;0,0510
3447,00;0,0510
3446,00;0,0510
3445,00;0,0510
3444,00;0,0510
3443,00;0,0511
3442,00;0,0511
3441,00;0,0511
3440,00;0,0511
3439,00;0,0511
3438,00;0,0511
3437,00;0,0511
3436,00;0,0511
3435,00;0,0511
3434,00;0,0511
3433,00;0,0511
3432,00;0,0512
3431,00;0,0512
3430,00;0,0512
3429,00;0,0512
3428,00;0,0512
3427,00;0,0512
3426,00;0,0512
3425,00;0,0512
3424,00;0,0512
3423,00;0,0512
3422,00;0,0512
3421,00;0,0512
3420,00;0,0513
3419,00;0,0513
3418,00;0,0513
3417,00;0,0513
3416,00;0,0513
3415,00;0,0513
3414,00;0,0513
3413,00;0,0513
3412,00;0,0513
3411,00;0,0513
3410,00;0,0513
3409,00;0,0514
3408,00;0,0514
3407,00;0,0514
3406,00;0,0514
3405,00;0,0514
3404,00;0,0514
3403,00;0,0514
3402,00;0,0514
3401,00;0,0514
3400,00;0,0514
3399,00;0,0514
3398,00;0,0514
3397,00;0,0515
3396,00;0,0515
3395,00;0,0514
3394,00;0,0514
3393,00;0,0514
3392,00;0,0515
3391,00;0,0515
3390,00;0,0515
3389,00;0,0515
3388,00;0,0516
3387,00;0,0516
3386,00;0,0516
3385,00;0,0516
3384,00;0,0516
3383,00;0,0516
3382,00;0,0516
3381,00;0,0516
3380,00;0,0516
3379,00;0,0516
3378,00;0,0516
3377,00;0,0516
3376,00;0,0516
3375,00;0,0516
3374,00;0,0516
3373,00;0,0516
3372,00;0,0516
3371,00;0,0516
3370,00;0,0516
3369,00;0,0516
3368,00;0,0516
3367,00;0,0517
3366,00;0,0517
3365,00;0,0517
3364,00;0,0517
3363,00;0,0517
3362,00;0,0517
3361,00;0,0517
3360,00;0,0517
3359,00;0,0517
3358,00;0,0517
3357,00;0,0517
3356,00;0,0517
3355,00;0,0517
3354,00;0,0517
3353,00;0,0517
3352,00;0,0517
3351,00;0,0517
3350,00;0,0517
3349,00;0,0518
3348,00;0,0518
3347,00;0,0518
3346,00;0,0518
3345,00;0,0518
3344,00;0,0518
3343,00;0,0518
3342,00;0,0518
3341,00;0,0518
3340,00;0,0518
3339,00;0,0518
3338,00;0,0518
3337,00;0,0518
3336,00;0,0518
3335,00;0,0518
3334,00;0,0518
3333,00;0,0519
3332,00;0,0519
3331,00;0,0519
3330,00;0,0519
3329,00;0,0519
3328,00;0,0519
3327,00;0,0519
3326,00;0,0519
3325,00;0,0519
3324,00;0,0519
3323,00;0,0519
3322,00;0,0519
3321,00;0,0519
3320,00;0,0519
3319,00;0,0519
3318,00;0,0519
3317,00;0,0520
3316,00;0,0520
3315,00;0,0520
3314,00;0,0520
3313,00;0,0520
3312,00;0,0520
3311,00;0,0520
3310,00;0,0520
3309,00;0,0519
3308,00;0,0519
3307,00;0,0519
3306,00;0,0519
3305,00;0,0519
3304,00;0,0519
3303,00;0,0520
3302,00;0,0520
3301,00;0,0520
3300,00;0,0520
3299,00;0,0520
3298,00;0,0520
3297,00;0,0520
3296,00;0,0520
3295,00;0,0520
3294,00;0,0520
3293,00;0,0520
3292,00;0,0520
3291,00;0,0520
3290,00;0,0520
3289,00;0,0520
3288,00;0,0521
3287,00;0,0521
3286,00;0,0521
3285,00;0,0521
3284,00;0,0521
3283,00;0,0521
3282,00;0,0520
3281,00;0,0520
3280,00;0,0521
3279,00;0,0521
3278,00;0,0521
3277,00;0,0521
3276,00;0,0521
3275,00;0,0520
3274,00;0,0520
3273,00;0,0520
3272,00;0,0520
3271,00;0,0520
3270,00;0,0521
3269,00;0,0521
3268,00;0,0521
3267,00;0,0521
3266,00;0,0521
3265,00;0,0521
3264,00;0,0521
3263,00;0,0521
3262,00;0,0521
3261,00;0,0521
3260,00;0,0521
3259,00;0,0521
3258,00;0,0521
3257,00;0,0521
3256,00;0,0521
3255,00;0,0521
3254,00;0,0521
3253,00;0,0521
3252,00;0,0521
3251,00;0,0521
3250,00;0,0521
3249,00;0,0521
3248,00;0,0521
3247,00;0,0521
3246,00;0,0522
3245,00;0,0522
3244,00;0,0522
3243,00;0,0522
3242,00;0,0522
3241,00;0,0522
3240,00;0,0522
3239,00;0,0522
3238,00;0,0522
3237,00;0,0522
3236,00;0,0522
3235,00;0,0522
3234,00;0,0522
3233,00;0,0522
3232,00;0,0522
3231,00;0,0522
3230,00;0,0522
3229,00;0,0522
3228,00;0,0522
3227,00;0,0522
3226,00;0,0522
3225,00;0,0522
3224,00;0,0522
3223,00;0,0523
3222,00;0,0523
3221,00;0,0523
3220,00;0,0523
3219,00;0,0523
3218,00;0,0523
3217,00;0,0523
3216,00;0,0523
3215,00;0,0523
3214,00;0,0523
3213,00;0,0523
3212,00;0,0523
3211,00;0,0523
3210,00;0,0523
3209,00;0,0523
3208,00;0,0523
3207,00;0,0523
3206,00;0,0523
3205,00;0,0523
3204,00;0,0523
3203,00;0,0524
3202,00;0,0524
3201,00;0,0524
3200,00;0,0524
3199,00;0,0524
3198,00;0,0524
3197,00;0,0524
3196,00;0,0524
3195,00;0,0524
3194,00;0,0524
3193,00;0,0524
3192,00;0,0524
3191,00;0,0524
3190,00;0,0524
3189,00;0,0524
3188,00;0,0524
3187,00;0,0524
3186,00;0,0524
3185,00;0,0524
3184,00;0,0524
3183,00;0,0524
3182,00;0,0524
3181,00;0,0524
3180,00;0,0524
3179,00;0,0524
3178,00;0,0524
3177,00;0,0524
3176,00;0,0524
3175,00;0,0524
3174,00;0,0524
3173,00;0,0525
3172,00;0,0525
3171,00;0,0525
3170,00;0,0525
3169,00;0,0525
3168,00;0,0525
3167,00;0,0525
3166,00;0,0525
3165,00;0,0525
3164,00;0,0525
3163,00;0,0525
3162,00;0,0525
3161,00;0,0525
3160,00;0,0525
3159,00;0,0525
3158,00;0,0525
3157,00;0,0525
3156,00;0,0525
3155,00;0,0525
3154,00;0,0524
3153,00;0,0524
3152,00;0,0524
3151,00;0,0524
3150,00;0,0525
3149,00;0,0525
3148,00;0,0525
3147,00;0,0525
3146,00;0,0525
3145,00;0,0525
3144,00;0,0525
3143,00;0,0525
3142,00;0,0525
3141,00;0,0525
3140,00;0,0525
3139,00;0,0525
3138,00;0,0525
3137,00;0,0525
3136,00;0,0525
3135,00;0,0525
3134,00;0,0525
3133,00;0,0525
3132,00;0,0525
3131,00;0,0525
3130,00;0,0525
3129,00;0,0525
3128,00;0,0525
3127,00;0,0525
3126,00;0,0525
3125,00;0,0525
3124,00;0,0525
3123,00;0,0525
3122,00;0,0525
3121,00;0,0525
3120,00;0,0525
3119,00;0,0525
3118,00;0,0525
3117,00;0,0525
3116,00;0,0525
3115,00;0,0525
3114,00;0,0525
3113,00;0,0526
3112,00;0,0526
3111,00;0,0526
3110,00;0,0526
3109,00;0,0526
3108,00;0,0526
3107,00;0,0526
3106,00;0,0526
3105,00;0,0526
3104,00;0,0526
3103,00;0,0526
3102,00;0,0526
3101,00;0,0526
3100,00;0,0526
3099,00;0,0526
3098,00;0,0526
3097,00;0,0526
3096,00;0,0527
3095,00;0,0527
3094,00;0,0527
3093,00;0,0526
3092,00;0,0526
3091,00;0,0526
3090,00;0,0526
3089,00;0,0526
3088,00;0,0526
3087,00;0,0526
3086,00;0,0526
3085,00;0,0526
3084,00;0,0526
3083,00;0,0526
3082,00;0,0526
3081,00;0,0526
3080,00;0,0526
3079,00;0,0526
3078,00;0,0526
3077,00;0,0526
3076,00;0,0527
3075,00;0,0527
3074,00;0,0527
3073,00;0,0527
3072,00;0,0527
3071,00;0,0527
3070,00;0,0527
3069,00;0,0526
3068,00;0,0526
3067,00;0,0527
3066,00;0,0527
3065,00;0,0527
3064,00;0,0527
3063,00;0,0527
3062,00;0,0527
3061,00;0,0527
3060,00;0,0527
3059,00;0,0527
3058,00;0,0527
3057,00;0,0527
3056,00;0,0527
3055,00;0,0527
3054,00;0,0527
3053,00;0,0527
3052,00;0,0527
3051,00;0,0527
3050,00;0,0527
3049,00;0,0527
3048,00;0,0527
3047,00;0,0527
3046,00;0,0526
3045,00;0,0526
3044,00;0,0526
3043,00;0,0526
3042,00;0,0526
3041,00;0,0526
3040,00;0,0526
3039,00;0,0527
3038,00;0,0527
3037,00;0,0526
3036,00;0,0526
3035,00;0,0526
3034,00;0,0526
3033,00;0,0527
3032,00;0,0527
3031,00;0,0527
3030,00;0,0527
3029,00;0,0527
3028,00;0,0526
3027,00;0,0526
3026,00;0,0526
3025,00;0,0526
3024,00;0,0526
3023,00;0,0526
3022,00;0,0526
3021,00;0,0526
3020,00;0,0526
3019,00;0,0526
3018,00;0,0525
3017,00;0,0525
3016,00;0,0525
3015,00;0,0525
3014,00;0,0525
3013,00;0,0525
3012,00;0,0526
3011,00;0,0526
3010,00;0,0527
3009,00;0,0527
3008,00;0,0527
3007,00;0,0528
3006,00;0,0528
3005,00;0,0528
3004,00;0,0528
3003,00;0,0528
3002,00;0,0528
3001,00;0,0528
3000,00;0,0528
2999,00;0,0528
2998,00;0,0528
2997,00;0,0528
2996,00;0,0529
2995,00;0,0529
2994,00;0,0529
2993,00;0,0529
2992,00;0,0530
2991,00;0,0530
2990,00;0,0530
2989,00;0,0530
2988,00;0,0531
2987,00;0,0531
2986,00;0,0531
2985,00;0,0532
2984,00;0,0532
2983,00;0,0532
2982,00;0,0533
2981,00;0,0533
2980,00;0,0533
2979,00;0,0533
2978,00;0,0533
2977,00;0,0533
2976,00;0,0532
2975,00;0,0532
2974,00;0,0532
2973,00;0,0533
2972,00;0,0533
2971,00;0,0533
2970,00;0,0533
2969,00;0,0533
2968,00;0,0532
2967,00;0,0532
2966,00;0,0532
2965,00;0,0531
2964,00;0,0531
2963,00;0,0531
2962,00;0,0531
2961,00;0,0531
2960,00;0,0531
2959,00;0,0532
2958,00;0,0532
2957,00;0,0533
2956,00;0,0533
2955,00;0,0533
2954,00;0,0533
2953,00;0,0533
2952,00;0,0533
2951,00;0,0534
2950,00;0,0534
2949,00;0,0534
2948,00;0,0534
2947,00;0,0533
2946,00;0,0533
2945,00;0,0533
2944,00;0,0533
2943,00;0,0533
2942,00;0,0533
2941,00;0,0533
2940,00;0,0533
2939,00;0,0533
2938,00;0,0532
2937,00;0,0531
2936,00;0,0531
2935,00;0,0530
2934,00;0,0529
2933,00;0,0529
2932,00;0,0528
2931,00;0,0527
2930,00;0,0527
2929,00;0,0527
2928,00;0,0527
2927,00;0,0527
2926,00;0,0527
2925,00;0,0527
2924,00;0,0527
2923,00;0,0527
2922,00;0,0527
2921,00;0,0527
2920,00;0,0528
2919,00;0,0528
2918,00;0,0528
2917,00;0,0529
2916,00;0,0529
2915,00;0,0530
2914,00;0,0531
2913,00;0,0531
2912,00;0,0532
2911,00;0,0532
2910,00;0,0533
2909,00;0,0533
2908,00;0,0534
2907,00;0,0534
2906,00;0,0534
2905,00;0,0534
2904,00;0,0535
2903,00;0,0535
2902,00;0,0535
2901,00;0,0535
2900,00;0,0535
2899,00;0,0535
2898,00;0,0535
2897,00;0,0534
2896,00;0,0535
2895,00;0,0535
2894,00;0,0536
2893,00;0,0536
2892,00;0,0536
2891,00;0,0537
2890,00;0,0537
2889,00;0,0537
2888,00;0,0537
2887,00;0,0537
2886,00;0,0537
2885,00;0,0537
2884,00;0,0537
2883,00;0,0537
2882,00;0,0537
2881,00;0,0537
2880,00;0,0537
2879,00;0,0537
2878,00;0,0536
2877,00;0,0536
2876,00;0,0536
2875,00;0,0535
2874,00;0,0535
2873,00;0,0535
2872,00;0,0535
2871,00;0,0535
2870,00;0,0535
2869,00;0,0536
2868,00;0,0536
2867,00;0,0536
2866,00;0,0536
2865,00;0,0535
2864,00;0,0535
2863,00;0,0535
2862,00;0,0534
2861,00;0,0533
2860,00;0,0533
2859,00;0,0532
2858,00;0,0531
2857,00;0,0531
2856,00;0,0531
2855,00;0,0531
2854,00;0,0531
2853,00;0,0530
2852,00;0,0530
2851,00;0,0530
2850,00;0,0531
2849,00;0,0531
2848,00;0,0532
2847,00;0,0533
2846,00;0,0533
2845,00;0,0534
2844,00;0,0534
2843,00;0,0535
2842,00;0,0535
2841,00;0,0534
2840,00;0,0534
2839,00;0,0534
2838,00;0,0534
2837,00;0,0535
2836,00;0,0535
2835,00;0,0535
2834,00;0,0535
2833,00;0,0535
2832,00;0,0535
2831,00;0,0535
2830,00;0,0536
2829,00;0,0536
2828,00;0,0536
2827,00;0,0536
2826,00;0,0535
2825,00;0,0535
2824,00;0,0535
2823,00;0,0535
2822,00;0,0534
2821,00;0,0534
2820,00;0,0534
2819,00;0,0535
2818,00;0,0535
2817,00;0,0535
2816,00;0,0534
2815,00;0,0534
2814,00;0,0534
2813,00;0,0534
2812,00;0,0534
2811,00;0,0534
2810,00;0,0534
2809,00;0,0534
2808,00;0,0534
2807,00;0,0534
2806,00;0,0534
2805,00;0,0534
2804,00;0,0534
2803,00;0,0534
2802,00;0,0534
2801,00;0,0534
2800,00;0,0534
2799,00;0,0533
2798,00;0,0533
2797,00;0,0533
2796,00;0,0533
2795,00;0,0533
2794,00;0,0533
2793,00;0,0533
2792,00;0,0533
2791,00;0,0533
2790,00;0,0533
2789,00;0,0533
2788,00;0,0533
2787,00;0,0533
2786,00;0,0533
2785,00;0,0533
2784,00;0,0533
2783,00;0,0533
2782,00;0,0533
2781,00;0,0533
2780,00;0,0533
2779,00;0,0533
2778,00;0,0533
2777,00;0,0533
2776,00;0,0533
2775,00;0,0533
2774,00;0,0533
2773,00;0,0533
2772,00;0,0533
2771,00;0,0533
2770,00;0,0533
2769,00;0,0533
2768,00;0,0532
2767,00;0,0532
2766,00;0,0532
2765,00;0,0532
2764,00;0,0532
2763,00;0,0532
2762,00;0,0532
2761,00;0,0532
2760,00;0,0532
2759,00;0,0532
2758,00;0,0532
2757,00;0,0532
2756,00;0,0532
2755,00;0,0532
2754,00;0,0532
2753,00;0,0532
2752,00;0,0532
2751,00;0,0532
2750,00;0,0532
2749,00;0,0532
2748,00;0,0532
2747,00;0,0532
2746,00;0,0532
2745,00;0,0532
2744,00;0,0532
2743,00;0,0532
2742,00;0,0532
2741,00;0,0532
2740,00;0,0532
2739,00;0,0532
2738,00;0,0532
2737,00;0,0532
2736,00;0,0532
2735,00;0,0532
2734,00;0,0532
2733,00;0,0532
2732,00;0,0532
2731,00;0,0532
2730,00;0,0532
2729,00;0,0532
2728,00;0,0532
2727,00;0,0532
2726,00;0,0532
2725,00;0,0532
2724,00;0,0532
2723,00;0,0532
2722,00;0,0532
2721,00;0,0532
2720,00;0,0532
2719,00;0,0532
2718,00;0,0532
2717,00;0,0532
2716,00;0,0532
2715,00;0,0531
2714,00;0,0531
2713,00;0,0531
2712,00;0,0531
2711,00;0,0531
2710,00;0,0531
2709,00;0,0531
2708,00;0,0531
2707,00;0,0531
2706,00;0,0531
2705,00;0,0531
2704,00;0,0531
2703,00;0,0531
2702,00;0,0531
2701,00;0,0531
2700,00;0,0531
2699,00;0,0531
2698,00;0,0531
2697,00;0,0531
2696,00;0,0531
2695,00;0,0531
2694,00;0,0531
2693,00;0,0531
2692,00;0,0531
2691,00;0,0531
2690,00;0,0531
2689,00;0,0531
2688,00;0,0531
2687,00;0,0531
2686,00;0,0531
2685,00;0,0531
2684,00;0,0531
2683,00;0,0531
2682,00;0,0531
2681,00;0,0531
2680,00;0,0531
2679,00;0,0531
2678,00;0,0530
2677,00;0,0530
2676,00;0,0530
2675,00;0,0530
2674,00;0,0531
2673,00;0,0531
2672,00;0,0531
2671,00;0,0531
2670,00;0,0531
2669,00;0,0531
2668,00;0,0531
2667,00;0,0531
2666,00;0,0532
2665,00;0,0532
2664,00;0,0532
2663,00;0,0532
2662,00;0,0532
2661,00;0,0532
2660,00;0,0532
2659,00;0,0533
2658,00;0,0533
2657,00;0,0533
2656,00;0,0533
2655,00;0,0533
2654,00;0,0533
2653,00;0,0533
2652,00;0,0533
2651,00;0,0533
2650,00;0,0532
2649,00;0,0532
2648,00;0,0531
2647,00;0,0531
2646,00;0,0531
2645,00;0,0531
2644,00;0,0531
2643,00;0,0530
2642,00;0,0530
2641,00;0,0530
2640,00;0,0529
2639,00;0,0529
2638,00;0,0529
2637,00;0,0529
2636,00;0,0529
2635,00;0,0529
2634,00;0,0528
2633,00;0,0528
2632,00;0,0528
2631,00;0,0528
2630,00;0,0528
2629,00;0,0528
2628,00;0,0528
2627,00;0,0528
2626,00;0,0527
2625,00;0,0527
2624,00;0,0527
2623,00;0,0527
2622,00;0,0526
2621,00;0,0526
2620,00;0,0526
2619,00;0,0526
2618,00;0,0526
2617,00;0,0526
2616,00;0,0526
2615,00;0,0526
2614,00;0,0525
2613,00;0,0525
2612,00;0,0525
2611,00;0,0525
2610,00;0,0525
2609,00;0,0524
2608,00;0,0524
2607,00;0,0524
2606,00;0,0524
2605,00;0,0524
2604,00;0,0524
2603,00;0,0524
2602,00;0,0524
2601,00;0,0524
2600,00;0,0524
2599,00;0,0523
2598,00;0,0523
2597,00;0,0523
2596,00;0,0523
2595,00;0,0523
2594,00;0,0523
2593,00;0,0523
2592,00;0,0522
2591,00;0,0522
2590,00;0,0522
2589,00;0,0522
2588,00;0,0522
2587,00;0,0522
2586,00;0,0522
2585,00;0,0522
2584,00;0,0521
2583,00;0,0521
2582,00;0,0521
2581,00;0,0521
2580,00;0,0521
2579,00;0,0521
2578,00;0,0521
2577,00;0,0521
2576,00;0,0521
2575,00;0,0521
2574,00;0,0521
2573,00;0,0521
2572,00;0,0521
2571,00;0,0520
2570,00;0,0520
2569,00;0,0520
2568,00;0,0520
2567,00;0,0520
2566,00;0,0520
2565,00;0,0520
2564,00;0,0520
2563,00;0,0520
2562,00;0,0520
2561,00;0,0520
2560,00;0,0520
2559,00;0,0519
2558,00;0,0519
2557,00;0,0519
2556,00;0,0519
2555,00;0,0519
2554,00;0,0519
2553,00;0,0519
2552,00;0,0519
2551,00;0,0519
2550,00;0,0519
2549,00;0,0519
2548,00;0,0519
2547,00;0,0518
2546,00;0,0518
2545,00;0,0518
2544,00;0,0518
2543,00;0,0518
2542,00;0,0518
2541,00;0,0518
2540,00;0,0518
2539,00;0,0518
2538,00;0,0518
2537,00;0,0518
2536,00;0,0518
2535,00;0,0518
2534,00;0,0518
2533,00;0,0518
2532,00;0,0518
2531,00;0,0518
2530,00;0,0517
2529,00;0,0517
2528,00;0,0517
2527,00;0,0517
2526,00;0,0517
2525,00;0,0517
2524,00;0,0517
2523,00;0,0517
2522,00;0,0517
2521,00;0,0517
2520,00;0,0517
2519,00;0,0517
2518,00;0,0517
2517,00;0,0517
2516,00;0,0517
2515,00;0,0517
2514,00;0,0518
2513,00;0,0517
2512,00;0,0517
2511,00;0,0517
2510,00;0,0517
2509,00;0,0517
2508,00;0,0517
2507,00;0,0517
2506,00;0,0517
2505,00;0,0517
2504,00;0,0517
2503,00;0,0517
2502,00;0,0516
2501,00;0,0516
2500,00;0,0517
2499,00;0,0517
2498,00;0,0517
2497,00;0,0517
2496,00;0,0517
2495,00;0,0517
2494,00;0,0517
2493,00;0,0517
2492,00;0,0517
2491,00;0,0517
2490,00;0,0517
2489,00;0,0517
2488,00;0,0517
2487,00;0,0517
2486,00;0,0517
2485,00;0,0517
2484,00;0,0517
2483,00;0,0516
2482,00;0,0516
2481,00;0,0516
2480,00;0,0516
2479,00;0,0516
2478,00;0,0516
2477,00;0,0516
2476,00;0,0516
2475,00;0,0516
2474,00;0,0516
2473,00;0,0516
2472,00;0,0516
2471,00;0,0516
2470,00;0,0516
2469,00;0,0516
2468,00;0,0516
2467,00;0,0516
2466,00;0,0516
2465,00;0,0516
2464,00;0,0517
2463,00;0,0517
2462,00;0,0517
2461,00;0,0517
2460,00;0,0516
2459,00;0,0516
2458,00;0,0516
2457,00;0,0517
2456,00;0,0517
2455,00;0,0517
2454,00;0,0517
2453,00;0,0517
2452,00;0,0516
2451,00;0,0516
2450,00;0,0516
2449,00;0,0516
2448,00;0,0516
2447,00;0,0516
2446,00;0,0516
2445,00;0,0516
2444,00;0,0516
2443,00;0,0516
2442,00;0,0516
2441,00;0,0516
2440,00;0,0516
2439,00;0,0516
2438,00;0,0516
2437,00;0,0516
2436,00;0,0516
2435,00;0,0516
2434,00;0,0516
2433,00;0,0516
2432,00;0,0516
2431,00;0,0516
2430,00;0,0516
2429,00;0,0516
2428,00;0,0516
2427,00;0,0516
2426,00;0,0516
2425,00;0,0515
2424,00;0,0515
2423,00;0,0515
2422,00;0,0515
2421,00;0,0515
2420,00;0,0515
2419,00;0,0515
2418,00;0,0515
2417,00;0,0515
2416,00;0,0515
2415,00;0,0515
2414,00;0,0515
2413,00;0,0515
2412,00;0,0515
2411,00;0,0515
2410,00;0,0515
2409,00;0,0515
2408,00;0,0515
2407,00;0,0515
2406,00;0,0515
2405,00;0,0515
2404,00;0,0515
2403,00;0,0515
2402,00;0,0514
2401,00;0,0514
2400,00;0,0514
2399,00;0,0515
2398,00;0,0515
2397,00;0,0515
2396,00;0,0515
2395,00;0,0515
2394,00;0,0515
2393,00;0,0515
2392,00;0,0515
2391,00;0,0515
2390,00;0,0515
2389,00;0,0515
2388,00;0,0515
2387,00;0,0515
2386,00;0,0515
2385,00;0,0515
2384,00;0,0516
2383,00;0,0516
2382,00;0,0516
2381,00;0,0516
2380,00;0,0516
2379,00;0,0516
2378,00;0,0516
2377,00;0,0516
2376,00;0,0516
2375,00;0,0516
2374,00;0,0516
2373,00;0,0516
2372,00;0,0516
2371,00;0,0517
2370,00;0,0517
2369,00;0,0518
2368,00;0,0518
2367,00;0,0518
2366,00;0,0519
2365,00;0,0519
2364,00;0,0518
2363,00;0,0518
2362,00;0,0518
2361,00;0,0518
2360,00;0,0518
2359,00;0,0519
2358,00;0,0520
2357,00;0,0520
2356,00;0,0520
2355,00;0,0521
2354,00;0,0521
2353,00;0,0521
2352,00;0,0521
2351,00;0,0520
2350,00;0,0520
2349,00;0,0520
2348,00;0,0520
2347,00;0,0520
2346,00;0,0520
2345,00;0,0520
2344,00;0,0521
2343,00;0,0521
2342,00;0,0522
2341,00;0,0522
2340,00;0,0522
2339,00;0,0522
2338,00;0,0522
2337,00;0,0522
2336,00;0,0522
2335,00;0,0522
2334,00;0,0522
2333,00;0,0522
2332,00;0,0522
2331,00;0,0522
2330,00;0,0522
2329,00;0,0523
2328,00;0,0524
2327,00;0,0525
2326,00;0,0526
2325,00;0,0527
2324,00;0,0528
2323,00;0,0527
2322,00;0,0527
2321,00;0,0526
2320,00;0,0525
2319,00;0,0525
2318,00;0,0525
2317,00;0,0525
2316,00;0,0524
2315,00;0,0524
2314,00;0,0523
2313,00;0,0523
2312,00;0,0523
2311,00;0,0523
2310,00;0,0523
2309,00;0,0524
2308,00;0,0524
2307,00;0,0524
2306,00;0,0523
2305,00;0,0523
2304,00;0,0523
2303,00;0,0522
2302,00;0,0522
2301,00;0,0522
2300,00;0,0522
2299,00;0,0523
2298,00;0,0523
2297,00;0,0523
2296,00;0,0523
2295,00;0,0523
2294,00;0,0522
2293,00;0,0522
2292,00;0,0522
2291,00;0,0522
2290,00;0,0523
2289,00;0,0523
2288,00;0,0523
2287,00;0,0523
2286,00;0,0523
2285,00;0,0523
2284,00;0,0522
2283,00;0,0522
2282,00;0,0521
2281,00;0,0521
2280,00;0,0520
2279,00;0,0520
2278,00;0,0520
2277,00;0,0520
2276,00;0,0520
2275,00;0,0520
2274,00;0,0519
2273,00;0,0519
2272,00;0,0519
2271,00;0,0519
2270,00;0,0518
2269,00;0,0518
2268,00;0,0517
2267,00;0,0517
2266,00;0,0516
2265,00;0,0516
2264,00;0,0516
2263,00;0,0516
2262,00;0,0516
2261,00;0,0516
2260,00;0,0516
2259,00;0,0516
2258,00;0,0516
2257,00;0,0516
2256,00;0,0515
2255,00;0,0515
2254,00;0,0515
2253,00;0,0515
2252,00;0,0515
2251,00;0,0515
2250,00;0,0515
2249,00;0,0514
2248,00;0,0515
2247,00;0,0515
2246,00;0,0515
2245,00;0,0515
2244,00;0,0515
2243,00;0,0515
2242,00;0,0515
2241,00;0,0514
2240,00;0,0514
2239,00;0,0514
2238,00;0,0514
2237,00;0,0514
2236,00;0,0514
2235,00;0,0514
2234,00;0,0514
2233,00;0,0514
2232,00;0,0514
2231,00;0,0514
2230,00;0,0514
2229,00;0,0514
2228,00;0,0514
2227,00;0,0514
2226,00;0,0514
2225,00;0,0514
2224,00;0,0513
2223,00;0,0513
2222,00;0,0513
2221,00;0,0513
2220,00;0,0513
2219,00;0,0513
2218,00;0,0513
2217,00;0,0513
2216,00;0,0513
2215,00;0,0513
2214,00;0,0513
2213,00;0,0513
2212,00;0,0513
2211,00;0,0513
2210,00;0,0512
2209,00;0,0512
2208,00;0,0512
2207,00;0,0513
2206,00;0,0513
2205,00;0,0513
2204,00;0,0513
2203,00;0,0512
2202,00;0,0512
2201,00;0,0512
2200,00;0,0513
2199,00;0,0513
2198,00;0,0512
2197,00;0,0512
2196,00;0,0512
2195,00;0,0512
2194,00;0,0512
2193,00;0,0512
2192,00;0,0512
2191,00;0,0512
2190,00;0,0511
2189,00;0,0510
2188,00;0,0509
2187,00;0,0509
2186,00;0,0509
2185,00;0,0509
2184,00;0,0508
2183,00;0,0508
2182,00;0,0507
2181,00;0,0506
2180,00;0,0505
2179,00;0,0505
2178,00;0,0505
2177,00;0,0505
2176,00;0,0504
2175,00;0,0504
2174,00;0,0503
2173,00;0,0504
2172,00;0,0504
2171,00;0,0505
2170,00;0,0506
2169,00;0,0507
2168,00;0,0508
2167,00;0,0509
2166,00;0,0509
2165,00;0,0509
2164,00;0,0509
2163,00;0,0508
2162,00;0,0507
2161,00;0,0504
2160,00;0,0500
2159,00;0,0495
2158,00;0,0491
2157,00;0,0488
2156,00;0,0489
2155,00;0,0490
2154,00;0,0493
2153,00;0,0494
2152,00;0,0495
2151,00;0,0495
2150,00;0,0496
2149,00;0,0496
2148,00;0,0496
2147,00;0,0496
2146,00;0,0496
2145,00;0,0495
2144,00;0,0495
2143,00;0,0495
2142,00;0,0496
2141,00;0,0496
2140,00;0,0497
2139,00;0,0498
2138,00;0,0499
2137,00;0,0499
2136,00;0,0498
2135,00;0,0497
2134,00;0,0496
2133,00;0,0495
2132,00;0,0495
2131,00;0,0496
2130,00;0,0496
2129,00;0,0497
2128,00;0,0497
2127,00;0,0498
2126,00;0,0499
2125,00;0,0500
2124,00;0,0501
2123,00;0,0501
2122,00;0,0502
2121,00;0,0502
2120,00;0,0502
2119,00;0,0503
2118,00;0,0503
2117,00;0,0504
2116,00;0,0504
2115,00;0,0504
2114,00;0,0504
2113,00;0,0504
2112,00;0,0504
2111,00;0,0505
2110,00;0,0505
2109,00;0,0505
2108,00;0,0505
2107,00;0,0505
2106,00;0,0505
2105,00;0,0505
2104,00;0,0505
2103,00;0,0505
2102,00;0,0505
2101,00;0,0505
2100,00;0,0505
2099,00;0,0506
2098,00;0,0506
2097,00;0,0506
2096,00;0,0505
2095,00;0,0505
2094,00;0,0505
2093,00;0,0506
2092,00;0,0506
2091,00;0,0507
2090,00;0,0507
2089,00;0,0507
2088,00;0,0507
2087,00;0,0507
2086,00;0,0507
2085,00;0,0507
2084,00;0,0507
2083,00;0,0507
2082,00;0,0508
2081,00;0,0508
2080,00;0,0508
2079,00;0,0508
2078,00;0,0508
2077,00;0,0508
2076,00;0,0508
2075,00;0,0508
2074,00;0,0508
2073,00;0,0508
2072,00;0,0508
2071,00;0,0507
2070,00;0,0507
2069,00;0,0507
2068,00;0,0507
2067,00;0,0507
2066,00;0,0507
2065,00;0,0507
2064,00;0,0507
2063,00;0,0507
2062,00;0,0507
2061,00;0,0507
2060,00;0,0507
2059,00;0,0507
2058,00;0,0506
2057,00;0,0506
2056,00;0,0506
2055,00;0,0505
2054,00;0,0505
2053,00;0,0505
2052,00;0,0506
2051,00;0,0506
2050,00;0,0506
2049,00;0,0506
2048,00;0,0505
2047,00;0,0504
2046,00;0,0503
2045,00;0,0503
2044,00;0,0502
2043,00;0,0502
2042,00;0,0502
2041,00;0,0502
2040,00;0,0502
2039,00;0,0502
2038,00;0,0501
2037,00;0,0500
2036,00;0,0500
2035,00;0,0500
2034,00;0,0499
2033,00;0,0499
2032,00;0,0498
2031,00;0,0498
2030,00;0,0498
2029,00;0,0498
2028,00;0,0498
2027,00;0,0498
2026,00;0,0497
2025,00;0,0497
2024,00;0,0496
2023,00;0,0495
2022,00;0,0494
2021,00;0,0493
2020,00;0,0492
2019,00;0,0492
2018,00;0,0492
2017,00;0,0492
2016,00;0,0492
2015,00;0,0493
2014,00;0,0494
2013,00;0,0496
2012,00;0,0496
2011,00;0,0496
2010,00;0,0495
2009,00;0,0495
2008,00;0,0495
2007,00;0,0495
2006,00;0,0495
2005,00;0,0495
2004,00;0,0495
2003,00;0,0496
2002,00;0,0496
2001,00;0,0496
2000,00;0,0496
1999,00;0,0497
1998,00;0,0497
1997,00;0,0497
1996,00;0,0498
1995,00;0,0498
1994,00;0,0499
1993,00;0,0500
1992,00;0,0500
1991,00;0,0499
1990,00;0,0499
1989,00;0,0498
1988,00;0,0498
1987,00;0,0498
1986,00;0,0499
1985,00;0,0499
1984,00;0,0500
1983,00;0,0500
1982,00;0,0500
1981,00;0,0500
1980,00;0,0500
1979,00;0,0499
1978,00;0,0497
1977,00;0,0496
1976,00;0,0495
1975,00;0,0495
1974,00;0,0495
1973,00;0,0496
1972,00;0,0496
1971,00;0,0495
1970,00;0,0495
1969,00;0,0495
1968,00;0,0494
1967,00;0,0494
1966,00;0,0493
1965,00;0,0493
1964,00;0,0493
1963,00;0,0493
1962,00;0,0494
1961,00;0,0494
1960,00;0,0493
1959,00;0,0492
1958,00;0,0492
1957,00;0,0492
1956,00;0,0492
1955,00;0,0493
1954,00;0,0493
1953,00;0,0493
1952,00;0,0493
1951,00;0,0493
1950,00;0,0493
1949,00;0,0494
1948,00;0,0493
1947,00;0,0493
1946,00;0,0493
1945,00;0,0493
1944,00;0,0494
1943,00;0,0494
1942,00;0,0494
1941,00;0,0494
1940,00;0,0494
1939,00;0,0494
1938,00;0,0495
1937,00;0,0495
1936,00;0,0495
1935,00;0,0495
1934,00;0,0495
1933,00;0,0495
1932,00;0,0495
1931,00;0,0495
1930,00;0,0495
1929,00;0,0496
1928,00;0,0496
1927,00;0,0496
1926,00;0,0496
1925,00;0,0496
1924,00;0,0496
1923,00;0,0496
1922,00;0,0496
1921,00;0,0496
1920,00;0,0496
1919,00;0,0497
1918,00;0,0497
1917,00;0,0497
1916,00;0,0497
1915,00;0,0497
1914,00;0,0497
1913,00;0,0497
1912,00;0,0497
1911,00;0,0497
1910,00;0,0497
1909,00;0,0497
1908,00;0,0498
1907,00;0,0498
1906,00;0,0498
1905,00;0,0498
1904,00;0,0498
1903,00;0,0498
1902,00;0,0498
1901,00;0,0498
1900,00;0,0498
1899,00;0,0498
1898,00;0,0498
1897,00;0,0498
1896,00;0,0498
1895,00;0,0498
1894,00;0,0498
1893,00;0,0498
1892,00;0,0498
1891,00;0,0498
1890,00;0,0498
1889,00;0,0498
1888,00;0,0498
1887,00;0,0498
1886,00;0,0498
1885,00;0,0498
1884,00;0,0498
1883,00;0,0498
1882,00;0,0498
1881,00;0,0498
1880,00;0,0498
1879,00;0,0499
1878,00;0,0499
1877,00;0,0499
1876,00;0,0499
1875,00;0,0499
1874,00;0,0499
1873,00;0,0499
1872,00;0,0499
1871,00;0,0498
1870,00;0,0498
1869,00;0,0498
1868,00;0,0498
1867,00;0,0498
1866,00;0,0498
1865,00;0,0498
1864,00;0,0498
1863,00;0,0498
1862,00;0,0498
1861,00;0,0498
1860,00;0,0498
1859,00;0,0498
1858,00;0,0498
1857,00;0,0498
1856,00;0,0498
1855,00;0,0497
1854,00;0,0497
1853,00;0,0497
1852,00;0,0497
1851,00;0,0497
1850,00;0,0497
1849,00;0,0497
1848,00;0,0497
1847,00;0,0497
1846,00;0,0497
1845,00;0,0497
1844,00;0,0497
1843,00;0,0497
1842,00;0,0497
1841,00;0,0497
1840,00;0,0496
1839,00;0,0496
1838,00;0,0496
1837,00;0,0496
1836,00;0,0496
1835,00;0,0496
1834,00;0,0497
1833,00;0,0497
1832,00;0,0497
1831,00;0,0497
1830,00;0,0497
1829,00;0,0496
1828,00;0,0496
1827,00;0,0496
1826,00;0,0496
1825,00;0,0495
1824,00;0,0495
1823,00;0,0495
1822,00;0,0495
1821,00;0,0495
1820,00;0,0495
1819,00;0,0495
1818,00;0,0495
1817,00;0,0494
1816,00;0,0494
1815,00;0,0494
1814,00;0,0494
1813,00;0,0494
1812,00;0,0494
1811,00;0,0495
1810,00;0,0495
1809,00;0,0495
1808,00;0,0495
1807,00;0,0495
1806,00;0,0495
1805,00;0,0496
1804,00;0,0496
1803,00;0,0496
1802,00;0,0496
1801,00;0,0496
1800,00;0,0495
1799,00;0,0495
1798,00;0,0495
1797,00;0,0495
1796,00;0,0495
1795,00;0,0495
1794,00;0,0495
1793,00;0,0494
1792,00;0,0494
1791,00;0,0495
1790,00;0,0495
1789,00;0,0495
1788,00;0,0495
1787,00;0,0495
1786,00;0,0495
1785,00;0,0494
1784,00;0,0494
1783,00;0,0494
1782,00;0,0494
1781,00;0,0493
1780,00;0,0494
1779,00;0,0494
1778,00;0,0494
1777,00;0,0494
1776,00;0,0494
1775,00;0,0494
1774,00;0,0494
1773,00;0,0494
1772,00;0,0494
1771,00;0,0494
1770,00;0,0494
1769,00;0,0494
1768,00;0,0495
1767,00;0,0494
1766,00;0,0494
1765,00;0,0494
1764,00;0,0494
1763,00;0,0494
1762,00;0,0494
1761,00;0,0494
1760,00;0,0494
1759,00;0,0494
1758,00;0,0494
1757,00;0,0494
1756,00;0,0494
1755,00;0,0494
1754,00;0,0494
1753,00;0,0493
1752,00;0,0492
1751,00;0,0492
1750,00;0,0492
1749,00;0,0492
1748,00;0,0492
1747,00;0,0492
1746,00;0,0493
1745,00;0,0493
1744,00;0,0493
1743,00;0,0493
1742,00;0,0493
1741,00;0,0493
1740,00;0,0494
1739,00;0,0494
1738,00;0,0494
1737,00;0,0494
1736,00;0,0494
1735,00;0,0495
1734,00;0,0495
1733,00;0,0496
1732,00;0,0498
1731,00;0,0498
1730,00;0,0498
1729,00;0,0498
1728,00;0,0498
1727,00;0,0498
1726,00;0,0498
1725,00;0,0499
1724,00;0,0500
1723,00;0,0501
1722,00;0,0501
1721,00;0,0502
1720,00;0,0502
1719,00;0,0503
1718,00;0,0503
1717,00;0,0504
1716,00;0,0505
1715,00;0,0506
1714,00;0,0507
1713,00;0,0508
1712,00;0,0508
1711,00;0,0509
1710,00;0,0509
1709,00;0,0509
1708,00;0,0510
1707,00;0,0510
1706,00;0,0510
1705,00;0,0511
1704,00;0,0512
1703,00;0,0512
1702,00;0,0513
1701,00;0,0513
1700,00;0,0513
1699,00;0,0513
1698,00;0,0514
1697,00;0,0514
1696,00;0,0514
1695,00;0,0514
1694,00;0,0514
1693,00;0,0514
1692,00;0,0514
1691,00;0,0514
1690,00;0,0513
1689,00;0,0512
1688,00;0,0512
1687,00;0,0512
1686,00;0,0512
1685,00;0,0512
1684,00;0,0512
1683,00;0,0512
1682,00;0,0512
1681,00;0,0512
1680,00;0,0511
1679,00;0,0511
1678,00;0,0511
1677,00;0,0511
1676,00;0,0510
1675,00;0,0510
1674,00;0,0509
1673,00;0,0509
1672,00;0,0509
1671,00;0,0508
1670,00;0,0507
1669,00;0,0507
1668,00;0,0506
1667,00;0,0506
1666,00;0,0506
1665,00;0,0506
1664,00;0,0506
1663,00;0,0505
1662,00;0,0505
1661,00;0,0505
1660,00;0,0505
1659,00;0,0505
1658,00;0,0504
1657,00;0,0504
1656,00;0,0504
1655,00;0,0504
1654,00;0,0504
1653,00;0,0504
1652,00;0,0505
1651,00;0,0505
1650,00;0,0506
1649,00;0,0506
1648,00;0,0505
1647,00;0,0505
1646,00;0,0505
1645,00;0,0506
1644,00;0,0506
1643,00;0,0507
1642,00;0,0507
1641,00;0,0508
1640,00;0,0508
1639,00;0,0508
1638,00;0,0509
1637,00;0,0509
1636,00;0,0510
1635,00;0,0510
1634,00;0,0511
1633,00;0,0512
1632,00;0,0513
1631,00;0,0513
1630,00;0,0514
1629,00;0,0514
1628,00;0,0515
1627,00;0,0516
1626,00;0,0516
1625,00;0,0517
1624,00;0,0518
1623,00;0,0519
1622,00;0,0520
1621,00;0,0521
1620,00;0,0523
1619,00;0,0524
1618,00;0,0526
1617,00;0,0527
1616,00;0,0528
1615,00;0,0530
1614,00;0,0532
1613,00;0,0534
1612,00;0,0536
1611,00;0,0538
1610,00;0,0539
1609,00;0,0541
1608,00;0,0543
1607,00;0,0545
1606,00;0,0548
1605,00;0,0550
1604,00;0,0553
1603,00;0,0555
1602,00;0,0558
1601,00;0,0560
1600,00;0,0562
1599,00;0,0564
1598,00;0,0566
1597,00;0,0568
1596,00;0,0571
1595,00;0,0573
1594,00;0,0576
1593,00;0,0578
1592,00;0,0580
1591,00;0,0582
1590,00;0,0585
1589,00;0,0587
1588,00;0,0589
1587,00;0,0591
1586,00;0,0593
1585,00;0,0595
1584,00;0,0598
1583,00;0,0600
1582,00;0,0602
1581,00;0,0604
1580,00;0,0606
1579,00;0,0608
1578,00;0,0610
1577,00;0,0612
1576,00;0,0614
1575,00;0,0616
1574,00;0,0617
1573,00;0,0619
1572,00;0,0621
1571,00;0,0622
1570,00;0,0623
1569,00;0,0624
1568,00;0,0625
1567,00;0,0627
1566,00;0,0628
1565,00;0,0629
1564,00;0,0630
1563,00;0,0632
1562,00;0,0634
1561,00;0,0637
1560,00;0,0638
1559,00;0,0640
1558,00;0,0641
1557,00;0,0642
1556,00;0,0644
1555,00;0,0646
1554,00;0,0648
1553,00;0,0651
1552,00;0,0654
1551,00;0,0657
1550,00;0,0660
1549,00;0,0662
1548,00;0,0665
1547,00;0,0668
1546,00;0,0670
1545,00;0,0673
1544,00;0,0676
1543,00;0,0679
1542,00;0,0682
1541,00;0,0686
1540,00;0,0689
1539,00;0,0693
1538,00;0,0696
1537,00;0,0699
1536,00;0,0703
1535,00;0,0706
1534,00;0,0709
1533,00;0,0711
1532,00;0,0713
1531,00;0,0715
1530,00;0,0718
1529,00;0,0720
1528,00;0,0722
1527,00;0,0723
1526,00;0,0724
1525,00;0,0725
1524,00;0,0726
1523,00;0,0726
1522,00;0,0725
1521,00;0,0723
1520,00;0,0722
1519,00;0,0721
1518,00;0,0720
1517,00;0,0717
1516,00;0,0714
1515,00;0,0710
1514,00;0,0707
1513,00;0,0704
1512,00;0,0700
1511,00;0,0697
1510,00;0,0694
1509,00;0,0691
1508,00;0,0686
1507,00;0,0680
1506,00;0,0674
1505,00;0,0668
1504,00;0,0664
1503,00;0,0660
1502,00;0,0656
1501,00;0,0652
1500,00;0,0647
1499,00;0,0643
1498,00;0,0638
1497,00;0,0633
1496,00;0,0627
1495,00;0,0623
1494,00;0,0620
1493,00;0,0617
1492,00;0,0615
1491,00;0,0612
1490,00;0,0608
1489,00;0,0605
1488,00;0,0602
1487,00;0,0599
1486,00;0,0596
1485,00;0,0594
1484,00;0,0592
1483,00;0,0590
1482,00;0,0588
1481,00;0,0586
1480,00;0,0585
1479,00;0,0583
1478,00;0,0582
1477,00;0,0581
1476,00;0,0581
1475,00;0,0581
1474,00;0,0581
1473,00;0,0581
1472,00;0,0583
1471,00;0,0585
1470,00;0,0587
1469,00;0,0590
1468,00;0,0593
1467,00;0,0596
1466,00;0,0599
1465,00;0,0603
1464,00;0,0607
1463,00;0,0611
1462,00;0,0614
1461,00;0,0618
1460,00;0,0621
1459,00;0,0624
1458,00;0,0627
1457,00;0,0630
1456,00;0,0633
1455,00;0,0636
1454,00;0,0639
1453,00;0,0643
1452,00;0,0646
1451,00;0,0650
1450,00;0,0653
1449,00;0,0657
1448,00;0,0660
1447,00;0,0663
1446,00;0,0665
1445,00;0,0668
1444,00;0,0671
1443,00;0,0673
1442,00;0,0675
1441,00;0,0676
1440,00;0,0678
1439,00;0,0679
1438,00;0,0680
1437,00;0,0681
1436,00;0,0682
1435,00;0,0683
1434,00;0,0683
1433,00;0,0684
1432,00;0,0685
1431,00;0,0685
1430,00;0,0685
1429,00;0,0685
1428,00;0,0685
1427,00;0,0685
1426,00;0,0686
1425,00;0,0686
1424,00;0,0687
1423,00;0,0688
1422,00;0,0688
1421,00;0,0689
1420,00;0,0690
1419,00;0,0690
1418,00;0,0691
1417,00;0,0692
1416,00;0,0692
1415,00;0,0693
1414,00;0,0695
1413,00;0,0698
1412,00;0,0701
1411,00;0,0704
1410,00;0,0706
1409,00;0,0709
1408,00;0,0711
1407,00;0,0712
1406,00;0,0712
1405,00;0,0711
1404,00;0,0710
1403,00;0,0709
1402,00;0,0708
1401,00;0,0707
1400,00;0,0706
1399,00;0,0704
1398,00;0,0701
1397,00;0,0699
1396,00;0,0695
1395,00;0,0692
1394,00;0,0687
1393,00;0,0683
1392,00;0,0680
1391,00;0,0676
1390,00;0,0673
1389,00;0,0669
1388,00;0,0666
1387,00;0,0662
1386,00;0,0659
1385,00;0,0656
1384,00;0,0653
1383,00;0,0649
1382,00;0,0647
1381,00;0,0644
1380,00;0,0641
1379,00;0,0638
1378,00;0,0635
1377,00;0,0632
1376,00;0,0630
1375,00;0,0628
1374,00;0,0625
1373,00;0,0624
1372,00;0,0622
1371,00;0,0620
1370,00;0,0618
1369,00;0,0616
1368,00;0,0614
1367,00;0,0613
1366,00;0,0612
1365,00;0,0610
1364,00;0,0609
1363,00;0,0607
1362,00;0,0605
1361,00;0,0604
1360,00;0,0602
1359,00;0,0601
1358,00;0,0599
1357,00;0,0598
1356,00;0,0597
1355,00;0,0595
1354,00;0,0594
1353,00;0,0592
1352,00;0,0591
1351,00;0,0589
1350,00;0,0588
1349,00;0,0588
1348,00;0,0587
1347,00;0,0586
1346,00;0,0586
1345,00;0,0585
1344,00;0,0585
1343,00;0,0585
1342,00;0,0586
1341,00;0,0586
1340,00;0,0587
1339,00;0,0588
1338,00;0,0589
1337,00;0,0590
1336,00;0,0590
1335,00;0,0591
1334,00;0,0590
1333,00;0,0590
1332,00;0,0589
1331,00;0,0588
1330,00;0,0587
1329,00;0,0586
1328,00;0,0586
1327,00;0,0585
1326,00;0,0584
1325,00;0,0583
1324,00;0,0583
1323,00;0,0582
1322,00;0,0582
1321,00;0,0582
1320,00;0,0582
1319,00;0,0582
1318,00;0,0581
1317,00;0,0581
1316,00;0,0581
1315,00;0,0581
1314,00;0,0580
1313,00;0,0580
1312,00;0,0579
1311,00;0,0578
1310,00;0,0577
1309,00;0,0577
1308,00;0,0577
1307,00;0,0577
1306,00;0,0577
1305,00;0,0577
1304,00;0,0576
1303,00;0,0576
1302,00;0,0575
1301,00;0,0574
1300,00;0,0572
1299,00;0,0570
1298,00;0,0568
1297,00;0,0566
1296,00;0,0564
1295,00;0,0562
1294,00;0,0560
1293,00;0,0559
1292,00;0,0557
1291,00;0,0556
1290,00;0,0554
1289,00;0,0553
1288,00;0,0552
1287,00;0,0550
1286,00;0,0549
1285,00;0,0548
1284,00;0,0547
1283,00;0,0546
1282,00;0,0545
1281,00;0,0544
1280,00;0,0543
1279,00;0,0542
1278,00;0,0541
1277,00;0,0540
1276,00;0,0539
1275,00;0,0539
1274,00;0,0538
1273,00;0,0537
1272,00;0,0536
1271,00;0,0535
1270,00;0,0534
1269,00;0,0533
1268,00;0,0533
1267,00;0,0533
1266,00;0,0532
1265,00;0,0531
1264,00;0,0530
1263,00;0,0529
1262,00;0,0528
1261,00;0,0528
1260,00;0,0527
1259,00;0,0527
1258,00;0,0526
1257,00;0,0526
1256,00;0,0525
1255,00;0,0524
1254,00;0,0523
1253,00;0,0522
1252,00;0,0522
1251,00;0,0521
1250,00;0,0521
1249,00;0,0520
1248,00;0,0519
1247,00;0,0519
1246,00;0,0518
1245,00;0,0517
1244,00;0,0516
1243,00;0,0516
1242,00;0,0516
1241,00;0,0516
1240,00;0,0516
1239,00;0,0516
1238,00;0,0516
1237,00;0,0516
1236,00;0,0515
1235,00;0,0515
1234,00;0,0515
1233,00;0,0515
1232,00;0,0516
1231,00;0,0517
1230,00;0,0517
1229,00;0,0518
1228,00;0,0519
1227,00;0,0519
1226,00;0,0520
1225,00;0,0521
1224,00;0,0522
1223,00;0,0524
1222,00;0,0528
1221,00;0,0533
1220,00;0,0538
1219,00;0,0543
1218,00;0,0547
1217,00;0,0550
1216,00;0,0551
1215,00;0,0551
1214,00;0,0552
1213,00;0,0552
1212,00;0,0552
1211,00;0,0553
1210,00;0,0555
1209,00;0,0557
1208,00;0,0558
1207,00;0,0560
1206,00;0,0563
1205,00;0,0565
1204,00;0,0567
1203,00;0,0569
1202,00;0,0571
1201,00;0,0574
1200,00;0,0576
1199,00;0,0578
1198,00;0,0581
1197,00;0,0583
1196,00;0,0586
1195,00;0,0589
1194,00;0,0592
1193,00;0,0595
1192,00;0,0598
1191,00;0,0600
1190,00;0,0603
1189,00;0,0606
1188,00;0,0609
1187,00;0,0612
1186,00;0,0615
1185,00;0,0618
1184,00;0,0621
1183,00;0,0624
1182,00;0,0627
1181,00;0,0630
1180,00;0,0634
1179,00;0,0638
1178,00;0,0641
1177,00;0,0645
1176,00;0,0649
1175,00;0,0653
1174,00;0,0656
1173,00;0,0660
1172,00;0,0664
1171,00;0,0668
1170,00;0,0673
1169,00;0,0677
1168,00;0,0682
1167,00;0,0686
1166,00;0,0690
1165,00;0,0695
1164,00;0,0699
1163,00;0,0702
1162,00;0,0706
1161,00;0,0710
1160,00;0,0714
1159,00;0,0717
1158,00;0,0721
1157,00;0,0725
1156,00;0,0729
1155,00;0,0732
1154,00;0,0734
1153,00;0,0737
1152,00;0,0740
1151,00;0,0743
1150,00;0,0746
1149,00;0,0748
1148,00;0,0750
1147,00;0,0752
1146,00;0,0753
1145,00;0,0753
1144,00;0,0754
1143,00;0,0755
1142,00;0,0756
1141,00;0,0756
1140,00;0,0756
1139,00;0,0756
1138,00;0,0756
1137,00;0,0757
1136,00;0,0756
1135,00;0,0756
1134,00;0,0754
1133,00;0,0754
1132,00;0,0753
1131,00;0,0752
1130,00;0,0752
1129,00;0,0751
1128,00;0,0750
1127,00;0,0749
1126,00;0,0748
1125,00;0,0746
1124,00;0,0745
1123,00;0,0743
1122,00;0,0742
1121,00;0,0741
1120,00;0,0741
1119,00;0,0741
1118,00;0,0741
1117,00;0,0741
1116,00;0,0740
1115,00;0,0740
1114,00;0,0739
1113,00;0,0738
1112,00;0,0737
1111,00;0,0737
1110,00;0,0736
1109,00;0,0735
1108,00;0,0735
1107,00;0,0735
1106,00;0,0735
1105,00;0,0735
1104,00;0,0735
1103,00;0,0735
1102,00;0,0735
1101,00;0,0736
1100,00;0,0736
1099,00;0,0737
1098,00;0,0737
1097,00;0,0738
1096,00;0,0739
1095,00;0,0740
1094,00;0,0741
1093,00;0,0743
1092,00;0,0744
1091,00;0,0746
1090,00;0,0747
1089,00;0,0749
1088,00;0,0751
1087,00;0,0752
1086,00;0,0754
1085,00;0,0756
1084,00;0,0757
1083,00;0,0759
1082,00;0,0760
1081,00;0,0761
1080,00;0,0761
1079,00;0,0762
1078,00;0,0762
1077,00;0,0763
1076,00;0,0764
1075,00;0,0765
1074,00;0,0765
1073,00;0,0766
1072,00;0,0766
1071,00;0,0766
1070,00;0,0766
1069,00;0,0766
1068,00;0,0766
1067,00;0,0767
1066,00;0,0767
1065,00;0,0768
1064,00;0,0768
1063,00;0,0768
1062,00;0,0768
1061,00;0,0767
1060,00;0,0766
1059,00;0,0765
1058,00;0,0764
1057,00;0,0763
1056,00;0,0763
1055,00;0,0762
1054,00;0,0760
1053,00;0,0759
1052,00;0,0757
1051,00;0,0756
1050,00;0,0754
1049,00;0,0754
1048,00;0,0753
1047,00;0,0752
1046,00;0,0750
1045,00;0,0747
1044,00;0,0745
1043,00;0,0742
1042,00;0,0740
1041,00;0,0739
1040,00;0,0737
1039,00;0,0734
1038,00;0,0731
1037,00;0,0728
1036,00;0,0725
1035,00;0,0722
1034,00;0,0719
1033,00;0,0716
1032,00;0,0713
1031,00;0,0710
1030,00;0,0707
1029,00;0,0704
1028,00;0,0702
1027,00;0,0699
1026,00;0,0697
1025,00;0,0694
1024,00;0,0691
1023,00;0,0689
1022,00;0,0686
1021,00;0,0683
1020,00;0,0681
1019,00;0,0679
1018,00;0,0676
1017,00;0,0674
1016,00;0,0672
1015,00;0,0670
1014,00;0,0668
1013,00;0,0667
1012,00;0,0666
1011,00;0,0667
1010,00;0,0667
1009,00;0,0667
1008,00;0,0668
1007,00;0,0669
1006,00;0,0670
1005,00;0,0672
1004,00;0,0673
1003,00;0,0675
1002,00;0,0678
1001,00;0,0681
1000,00;0,0684
999,00;0,0687
998,00;0,0689
997,00;0,0691
996,00;0,0692
995,00;0,0692
994,00;0,0692
993,00;0,0691
992,00;0,0690
991,00;0,0689
990,00;0,0687
989,00;0,0684
988,00;0,0682
987,00;0,0680
986,00;0,0677
985,00;0,0675
984,00;0,0674
983,00;0,0672
982,00;0,0671
981,00;0,0670
980,00;0,0669
979,00;0,0667
978,00;0,0665
977,00;0,0663
976,00;0,0661
975,00;0,0660
974,00;0,0658
973,00;0,0657
972,00;0,0656
971,00;0,0655
970,00;0,0654
969,00;0,0653
968,00;0,0651
967,00;0,0649
966,00;0,0647
965,00;0,0645
964,00;0,0644
963,00;0,0643
962,00;0,0642
961,00;0,0640
960,00;0,0639
959,00;0,0638
958,00;0,0636
957,00;0,0635
956,00;0,0634
955,00;0,0632
954,00;0,0631
953,00;0,0629
952,00;0,0628
951,00;0,0628
950,00;0,0627
949,00;0,0627
948,00;0,0628
947,00;0,0628
946,00;0,0629
945,00;0,0629
944,00;0,0628
943,00;0,0628
942,00;0,0627
941,00;0,0626
940,00;0,0624
939,00;0,0623
938,00;0,0621
937,00;0,0619
936,00;0,0617
935,00;0,0615
934,00;0,0614
933,00;0,0613
932,00;0,0611
931,00;0,0610
930,00;0,0608
929,00;0,0607
928,00;0,0606
927,00;0,0606
926,00;0,0605
925,00;0,0605
924,00;0,0604
923,00;0,0603
922,00;0,0602
921,00;0,0601
920,00;0,0600
919,00;0,0599
918,00;0,0598
917,00;0,0597
916,00;0,0596
915,00;0,0595
914,00;0,0595
913,00;0,0595
912,00;0,0595
911,00;0,0594
910,00;0,0593
909,00;0,0592
908,00;0,0591
907,00;0,0590
906,00;0,0589
905,00;0,0588
904,00;0,0586
903,00;0,0585
902,00;0,0584
901,00;0,0582
900,00;0,0581
899,00;0,0580
898,00;0,0579
897,00;0,0578
896,00;0,0577
895,00;0,0576
894,00;0,0576
893,00;0,0575
892,00;0,0574
891,00;0,0573
890,00;0,0572
889,00;0,0571
888,00;0,0570
887,00;0,0569
886,00;0,0568
885,00;0,0568
884,00;0,0567
883,00;0,0566
882,00;0,0565
881,00;0,0564
880,00;0,0563
879,00;0,0562
878,00;0,0561
877,00;0,0560
876,00;0,0559
875,00;0,0558
874,00;0,0557
873,00;0,0556
872,00;0,0555
871,00;0,0554
870,00;0,0553
869,00;0,0553
868,00;0,0552
867,00;0,0551
866,00;0,0550
865,00;0,0549
864,00;0,0548
863,00;0,0547
862,00;0,0546
861,00;0,0546
860,00;0,0545
859,00;0,0544
858,00;0,0543
857,00;0,0542
856,00;0,0541
855,00;0,0541
854,00;0,0540
853,00;0,0539
852,00;0,0538
851,00;0,0537
850,00;0,0536
849,00;0,0536
848,00;0,0535
847,00;0,0534
846,00;0,0533
845,00;0,0533
844,00;0,0532
843,00;0,0531
842,00;0,0530
841,00;0,0529
840,00;0,0528
839,00;0,0528
838,00;0,0527
837,00;0,0526
836,00;0,0526
835,00;0,0525
834,00;0,0524
833,00;0,0524
832,00;0,0523
831,00;0,0522
830,00;0,0521
829,00;0,0520
828,00;0,0519
827,00;0,0518
826,00;0,0518
825,00;0,0517
824,00;0,0516
823,00;0,0516
822,00;0,0515
821,00;0,0515
820,00;0,0514
819,00;0,0513
818,00;0,0513
817,00;0,0512
816,00;0,0512
815,00;0,0512
814,00;0,0511
813,00;0,0510
812,00;0,0509
811,00;0,0508
810,00;0,0507
809,00;0,0506
808,00;0,0505
807,00;0,0505
806,00;0,0504
805,00;0,0504
804,00;0,0503
803,00;0,0503
802,00;0,0503
801,00;0,0503
800,00;0,0502
799,00;0,0502
798,00;0,0501
797,00;0,0500
796,00;0,0499
795,00;0,0499
794,00;0,0499
793,00;0,0499
792,00;0,0498
791,00;0,0498
790,00;0,0498
789,00;0,0498
788,00;0,0498
787,00;0,0498
786,00;0,0497
785,00;0,0497
784,00;0,0496
783,00;0,0496
782,00;0,0495
781,00;0,0495
780,00;0,0494
779,00;0,0495
778,00;0,0495
777,00;0,0495
776,00;0,0495
775,00;0,0494
774,00;0,0494
773,00;0,0494
772,00;0,0495
771,00;0,0495
770,00;0,0494
769,00;0,0492
768,00;0,0491
767,00;0,0490
766,00;0,0490
765,00;0,0491
764,00;0,0492
763,00;0,0492
762,00;0,0492
761,00;0,0492
760,00;0,0491
759,00;0,0490
758,00;0,0491
757,00;0,0491
756,00;0,0492
755,00;0,0492
754,00;0,0493
753,00;0,0495
752,00;0,0496
751,00;0,0496
750,00;0,0495
749,00;0,0494
748,00;0,0494
747,00;0,0493
746,00;0,0493
745,00;0,0493
744,00;0,0494
743,00;0,0496
742,00;0,0498
741,00;0,0500
740,00;0,0502
739,00;0,0505
738,00;0,0506
737,00;0,0508
736,00;0,0507
735,00;0,0506
734,00;0,0504
733,00;0,0503
732,00;0,0502
731,00;0,0502
730,00;0,0502
729,00;0,0501
728,00;0,0500
727,00;0,0499
726,00;0,0498
725,00;0,0497
724,00;0,0496
723,00;0,0495
722,00;0,0495
721,00;0,0494
720,00;0,0494
719,00;0,0494
718,00;0,0493
717,00;0,0493
716,00;0,0492
715,00;0,0492
714,00;0,0492
713,00;0,0492
712,00;0,0493
711,00;0,0493
710,00;0,0493
709,00;0,0492
708,00;0,0491
707,00;0,0490
706,00;0,0490
705,00;0,0490
704,00;0,0491
703,00;0,0491
702,00;0,0490
701,00;0,0491
700,00;0,0492
699,00;0,0493
698,00;0,0495
697,00;0,0496
696,00;0,0497
695,00;0,0497
694,00;0,0498
693,00;0,0500
692,00;0,0503
691,00;0,0507
690,00;0,0511
689,00;0,0514
688,00;0,0518
687,00;0,0522
686,00;0,0526
685,00;0,0530
684,00;0,0533
683,00;0,0535
682,00;0,0536
681,00;0,0538
680,00;0,0541
679,00;0,0543
678,00;0,0546
677,00;0,0549
676,00;0,0551
675,00;0,0553
674,00;0,0554
673,00;0,0553
672,00;0,0552
671,00;0,0549
670,00;0,0547
669,00;0,0545
668,00;0,0542
667,00;0,0540
666,00;0,0538
665,00;0,0536
664,00;0,0535
663,00;0,0535
662,00;0,0534
661,00;0,0533
660,00;0,0532
659,00;0,0532
658,00;0,0531
657,00;0,0531
656,00;0,0531
655,00;0,0531
654,00;0,0530
653,00;0,0529
652,00;0,0528
651,00;0,0529
650,00;0,0530
649,00;0,0531
648,00;0,0533
647,00;0,0535
646,00;0,0536
645,00;0,0537
644,00;0,0538
643,00;0,0541
642,00;0,0544
641,00;0,0547
640,00;0,0550
639,00;0,0552
638,00;0,0554
637,00;0,0556
636,00;0,0559
635,00;0,0562
634,00;0,0565
633,00;0,0570
632,00;0,0574
631,00;0,0578
630,00;0,0580
629,00;0,0582
628,00;0,0584
627,00;0,0586
626,00;0,0588
625,00;0,0590
624,00;0,0593
623,00;0,0595
622,00;0,0596
621,00;0,0596
620,00;0,0598
619,00;0,0600
618,00;0,0602
617,00;0,0605
616,00;0,0608
615,00;0,0613
614,00;0,0618
613,00;0,0624
612,00;0,0632
611,00;0,0641
610,00;0,0650
609,00;0,0659
608,00;0,0669
607,00;0,0679
606,00;0,0689
605,00;0,0700
604,00;0,0711
603,00;0,0722
602,00;0,0732
601,00;0,0743
600,00;0,0752
599,00;0,0759
598,00;0,0765
597,00;0,0771
596,00;0,0777
595,00;0,0780
594,00;0,0782
593,00;0,0782
592,00;0,0783
591,00;0,0784
590,00;0,0787
589,00;0,0791
588,00;0,0795
587,00;0,0797
586,00;0,0799
585,00;0,0803
584,00;0,0809
583,00;0,0816
582,00;0,0821
581,00;0,0825
580,00;0,0828
579,00;0,0831
578,00;0,0837
577,00;0,0844
576,00;0,0853
575,00;0,0860
574,00;0,0864
573,00;0,0867
572,00;0,0870
571,00;0,0873
570,00;0,0876
569,00;0,0881
568,00;0,0888
567,00;0,0897
566,00;0,0905
565,00;0,0914
564,00;0,0924
563,00;0,0933
562,00;0,0939
561,00;0,0944
560,00;0,0948
559,00;0,0951
558,00;0,0954
557,00;0,0958
556,00;0,0962
555,00;0,0964
554,00;0,0963
553,00;0,0962
552,00;0,0962
551,00;0,0962
550,00;0,0963
549,00;0,0962
548,00;0,0961
547,00;0,0959
546,00;0,0957
545,00;0,0954
544,00;0,0952
543,00;0,0948
542,00;0,0945
541,00;0,0942
540,00;0,0939
539,00;0,0934
538,00;0,0926
537,00;0,0918
536,00;0,0910
535,00;0,0900
534,00;0,0888
533,00;0,0874
532,00;0,0863
531,00;0,0853
530,00;0,0846
529,00;0,0840
528,00;0,0835
527,00;0,0828
526,00;0,0819
525,00;0,0810
524,00;0,0804
523,00;0,0798
522,00;0,0792
521,00;0,0786
520,00;0,0780
519,00;0,0775
518,00;0,0770
517,00;0,0763
516,00;0,0754
515,00;0,0743
514,00;0,0731
513,00;0,0721
512,00;0,0713
511,00;0,0705
510,00;0,0697
509,00;0,0690
508,00;0,0684
507,00;0,0676
506,00;0,0667
505,00;0,0658
504,00;0,0650
503,00;0,0644
502,00;0,0638
501,00;0,0632
500,00;0,0625
499,00;0,0618
498,00;0,0610
497,00;0,0604
496,00;0,0599
495,00;0,0594
494,00;0,0589
493,00;0,0585
492,00;0,0580
491,00;0,0573
490,00;0,0566
489,00;0,0561
488,00;0,0559
487,00;0,0558
486,00;0,0556
485,00;0,0553
484,00;0,0551
483,00;0,0548
482,00;0,0544
481,00;0,0541
480,00;0,0539
479,00;0,0538
478,00;0,0536
477,00;0,0533
476,00;0,0531
475,00;0,0529
474,00;0,0526
473,00;0,0523
472,00;0,0521
471,00;0,0519
470,00;0,0517
469,00;0,0515
468,00;0,0512
467,00;0,0508
466,00;0,0501
465,00;0,0495
464,00;0,0491
463,00;0,0490
462,00;0,0494
461,00;0,0500
460,00;0,0506
459,00;0,0507
458,00;0,0504
457,00;0,0502
456,00;0,0502
455,00;0,0503
454,00;0,0502
453,00;0,0498
452,00;0,0496
451,00;0,0495
450,00;0,0496
